V5,V2
4.81,6.31
4.805,6.36
4.795,6.385
4.79,6.43
4.8,6.475
4.805,6.52
4.79,6.54
4.775,6.58
4.79,6.635
4.79,6.675
4.79,6.71
4.795,6.745
4.815,6.8
4.825,6.85
4.825,6.88
4.825,6.915
4.83,6.96
4.845,7.005
4.855,7.025
4.835,7.035
4.855,7.06
4.88,7.065
4.89,7.055
4.885,7.045
4.91,7.035
4.925,7.03
4.965,6.945
4.96,6.885
4.95,6.825
4.98,6.76
5.01,6.66
5.025,6.56
5.025,6.47
5.04,6.385
5.03,6.29
5.015,6.17
5.01,6.08
5.035,6.0
5.045,5.935
5.04,5.84
5.005,5.755
4.995,5.69
4.98,5.63
4.95,5.55
4.935,5.495
4.94,5.455
4.955,5.41
4.96,5.37
4.94,5.315
4.925,5.305
4.93,5.3
4.915,5.245
4.905,5.22
4.885,5.205
4.89,5.2
4.875,5.2
4.865,5.18
4.85,5.175
4.875,5.185
4.88,5.18
4.86,5.16
4.86,5.16
4.87,5.175
4.885,5.18
4.885,5.175
4.86,5.16
4.865,5.185
4.865,5.195
4.855,5.19
4.83,5.175
4.83,5.19
4.85,5.19
4.855,5.18
4.845,5.165
4.835,5.165
4.835,5.175
4.83,5.175
4.825,5.165
4.84,5.17
4.86,5.17
4.865,5.16
4.83,5.135
4.8,5.135
4.81,5.135
4.81,5.13
4.81,5.125
4.8,5.11
4.81,5.13
4.81,5.11
4.805,5.1
4.79,5.08
4.805,5.09
4.81,5.08
4.805,5.075
4.8,5.065
4.795,5.06
4.795,5.055
4.795,5.04
4.775,5.03
4.775,5.03
4.785,5.035
4.795,5.035
4.78,5.025
4.78,5.03
4.81,5.03
4.82,5.025
4.805,5.02
4.8,5.015
4.81,5.025
4.805,5.02
4.785,5.015
4.775,5.005
4.78,5.015
4.8,5.025
4.79,5.005
4.795,5.005
4.8,5.015
4.795,5.01
4.78,5.01
4.78,5.0
4.8,5.01
4.82,5.02
4.815,5.015
4.81,5.005
4.81,5.01
4.81,5.015
4.795,5.015
4.8,5.005
4.795,5.0
4.795,5.015
4.805,5.0
4.805,5.0
4.805,4.995
4.805,5.005
4.81,5.0
4.805,4.99
4.8,4.995
4.82,5.005
4.835,5.01
4.845,5.0
4.845,5.015
4.855,5.06
4.855,5.18
4.865,5.545
4.9,6.01
4.99,5.91
5.245,5.57
5.765,5.45
5.92,5.385
5.51,5.33
5.38,5.315
5.25,5.125
5.26,4.9
5.28,4.605
5.32,4.25
5.34,3.855
5.33,3.465
5.295,3.14
5.28,2.89
5.325,2.67
5.33,2.51
5.315,2.365
5.3,2.25
5.24,2.16
5.13,2.11
5.025,2.075
4.95,2.065
4.81,2.065
4.665,2.05
4.635,2.05
4.65,2.065
4.67,2.08
4.64,2.105
4.61,2.18
4.585,2.34
4.58,2.4
4.615,2.755
4.63,3.025
4.66,3.39
4.69,3.745
4.705,4.08
4.7,4.385
4.69,4.71
4.705,4.97
4.7,5.195
4.69,5.395
4.695,5.585
4.74,5.745
4.755,5.84
4.75,5.89
4.76,5.94
4.795,6.01
4.805,6.055
4.795,6.095
4.78,6.12
4.785,6.165
4.81,6.21
4.81,6.235
4.8,6.245
4.8,6.3
4.805,6.32
4.81,6.375
4.81,6.395
4.8,6.435
4.81,6.485
4.805,6.53
4.8,6.565
4.815,6.6
4.84,6.655
4.85,6.68
4.84,6.71
4.83,6.765
4.845,6.82
4.85,6.845
4.835,6.87
4.825,6.91
4.84,6.97
4.865,6.99
4.855,7.005
4.865,7.02
4.895,7.04
4.92,7.045
4.93,7.045
4.93,7.03
4.94,7.03
4.955,7.02
4.98,6.95
4.985,6.895
4.99,6.83
5.01,6.765
5.015,6.675
5.04,6.57
5.05,6.485
5.07,6.415
5.085,6.315
5.085,6.2
5.075,6.1
5.075,6.01
5.075,5.91
5.045,5.815
5.05,5.735
5.055,5.675
5.055,5.615
5.035,5.555
5.005,5.505
4.99,5.465
4.975,5.425
4.96,5.38
4.95,5.34
4.935,5.315
4.94,5.315
4.93,5.27
4.91,5.23
4.9,5.225
4.895,5.23
4.895,5.215
4.89,5.195
4.88,5.195
4.88,5.195
4.88,5.19
4.87,5.175
4.86,5.175
4.865,5.185
4.875,5.18
4.865,5.17
4.86,5.17
4.865,5.185
4.86,5.185
4.845,5.175
4.835,5.165
4.835,5.18
4.85,5.18
4.835,5.18
4.825,5.185
4.83,5.19
4.825,5.205
4.84,5.195
4.825,5.175
4.81,5.17
4.82,5.185
4.83,5.18
4.805,5.165
4.795,5.16
4.81,5.16
4.805,5.16
4.79,5.135
4.775,5.125
4.79,5.135
4.795,5.135
4.775,5.115
4.77,5.11
4.77,5.11
4.785,5.105
4.78,5.09
4.765,5.08
4.76,5.08
4.78,5.08
4.765,5.07
4.76,5.065
4.755,5.06
4.765,5.065
4.765,5.06
4.755,5.045
4.745,5.05
4.755,5.055
4.765,5.05
4.745,5.04
4.74,5.035
4.74,5.05
4.745,5.05
4.74,5.025
4.74,5.025
4.745,5.045
4.755,5.035
4.73,5.02
4.73,5.02
4.735,5.03
4.755,5.035
4.75,5.025
4.735,5.02
4.75,5.04
4.75,5.035
4.745,5.03
4.74,5.015
4.745,5.02
4.74,5.025
4.76,5.02
4.75,5.01
4.745,5.01
4.76,5.025
4.76,5.015
4.75,4.995
4.75,5.01
4.77,5.015
4.77,5.02
4.755,5.0
4.745,5.0
4.775,5.005
4.775,5.01
4.765,5.01
4.755,5.0
4.76,5.015
4.785,5.02
4.79,5.03
4.785,5.06
4.805,5.19
4.85,5.565
4.895,5.915
4.99,5.75
5.365,5.49
5.52,5.445
5.775,5.37
5.355,5.305
5.19,5.25
5.225,5.135
5.245,4.93
5.245,4.63
5.255,4.3
5.295,3.975
5.305,3.605
5.3,3.265
5.285,3.005
5.295,2.795
5.315,2.645
5.295,2.5
5.255,2.35
5.235,2.24
5.185,2.175
5.07,2.12
4.995,2.08
4.925,2.075
4.815,2.075
4.69,2.055
4.635,2.045
4.655,2.06
4.67,2.065
4.7,2.11
4.66,2.16
4.63,2.29
4.62,2.45
4.63,2.64
4.63,2.875
4.64,3.21
4.675,3.57
4.675,3.905
4.665,4.225
4.655,4.57
4.65,4.85
4.655,5.09
4.635,5.295
4.615,5.495
4.64,5.665
4.67,5.795
4.66,5.865
4.655,5.91
4.66,5.98
4.68,6.025
4.68,6.06
4.675,6.08
4.675,6.145
4.68,6.16
4.695,6.21
4.68,6.225
4.68,6.275
4.695,6.32
4.705,6.365
4.7,6.385
4.69,6.435
4.69,6.47
4.7,6.51
4.69,6.545
4.685,6.585
4.695,6.635
4.705,6.68
4.68,6.705
4.68,6.755
4.695,6.82
4.705,6.855
4.69,6.875
4.7,6.92
4.715,6.96
4.73,7.0
4.735,7.025
4.73,7.035
4.74,7.065
4.75,7.08
4.775,7.085
4.775,7.075
4.785,7.07
4.815,7.055
4.82,7.03
4.82,6.98
4.845,6.935
4.86,6.885
4.865,6.825
4.88,6.74
4.88,6.655
4.905,6.58
4.92,6.49
4.92,6.385
4.93,6.3
4.945,6.215
4.955,6.13
4.95,6.035
4.945,5.94
4.945,5.86
4.945,5.78
4.94,5.705
4.945,5.62
4.93,5.565
4.935,5.545
4.92,5.46
4.91,5.405
4.89,5.375
4.895,5.345
4.89,5.32
4.87,5.275
4.855,5.255
4.865,5.25
4.87,5.24
4.865,5.205
4.85,5.19
4.85,5.205
4.845,5.205
4.845,5.19
4.83,5.18
4.835,5.2
4.84,5.19
4.84,5.185
4.83,5.175
4.835,5.195
4.84,5.2
4.845,5.185
4.825,5.17
4.82,5.19
4.825,5.195
4.83,5.2
4.815,5.2
4.815,5.215
4.835,5.235
4.835,5.235
4.815,5.225
4.805,5.23
4.81,5.24
4.805,5.24
4.795,5.22
4.8,5.22
4.805,5.23
4.82,5.22
4.815,5.19
4.81,5.185
4.81,5.17
4.83,5.155
4.835,5.12
4.825,5.1
4.825,5.1
4.835,5.085
4.835,5.065
4.82,5.04
4.815,5.03
4.825,5.04
4.82,5.045
4.8,5.04
4.795,5.05
4.795,5.045
4.775,5.025
4.755,5.02
4.745,5.01
4.75,5.025
4.76,5.02
4.75,5.0
4.745,5.01
4.74,5.01
4.75,5.01
4.745,5.0
4.73,4.995
4.745,5.005
4.75,5.0
4.745,4.98
4.735,4.98
4.73,4.995
4.745,4.99
4.735,4.985
4.74,4.975
4.74,4.985
4.75,4.995
4.75,4.98
4.745,4.975
4.735,4.975
4.76,4.98
4.75,4.985
4.745,4.975
4.745,4.98
4.76,4.985
4.77,4.985
4.76,4.975
4.75,4.97
4.76,4.985
4.77,4.99
4.76,4.98
4.74,4.975
4.765,4.99
4.78,4.995
4.77,4.98
4.76,4.98
4.78,4.995
4.785,5.015
4.795,5.01
4.795,5.015
4.81,5.09
4.82,5.13
4.875,5.815
4.945,5.88
5.2,5.585
5.705,5.435
5.925,5.37
5.56,5.305
5.235,5.265
5.215,5.195
5.255,5.035
5.25,4.79
5.255,4.485
5.29,4.15
5.31,3.81
5.31,3.425
5.29,3.105
5.28,2.89
5.3,2.73
5.31,2.605
5.295,2.52
5.3,2.42
5.3,2.305
5.25,2.2
5.155,2.165
5.085,2.14
5.065,2.13
4.91,2.075
4.78,2.05
4.75,2.05
4.81,2.07
4.835,2.09
4.835,2.12
4.805,2.205
4.785,2.31
4.745,2.45
4.705,2.59
4.7,2.8
4.705,3.06
4.7,3.365
4.675,3.68
4.665,3.98
4.68,4.305
4.7,4.62
4.685,4.875
4.665,5.09
4.65,5.315
4.64,5.5
4.655,5.665
4.655,5.8
4.645,5.905
4.655,5.93
4.675,6.015
4.66,6.055
4.665,6.135
4.69,6.195
4.685,6.235
4.67,6.275
4.67,6.33
4.695,6.395
4.7,6.44
4.695,6.485
4.685,6.525
4.69,6.6
4.69,6.655
4.685,6.695
4.69,6.76
4.7,6.82
4.705,6.86
4.715,6.905
4.705,6.965
4.715,7.035
4.735,7.07
4.73,7.11
4.715,7.135
4.73,7.185
4.745,7.2
4.76,7.225
4.76,7.245
4.77,7.245
4.8,7.265
4.815,7.26
4.805,7.22
4.83,7.21
4.845,7.175
4.835,7.135
4.845,7.075
4.86,7.015
4.89,6.95
4.905,6.88
4.905,6.79
4.915,6.705
4.935,6.635
4.945,6.54
4.945,6.425
4.945,6.335
4.955,6.25
4.965,6.16
4.95,6.07
4.94,5.985
4.94,5.905
4.94,5.88
4.94,5.755
4.925,5.685
4.91,5.63
4.92,5.585
4.92,5.53
4.915,5.475
4.9,5.435
4.91,5.405
4.915,5.37
4.91,5.325
4.9,5.295
4.905,5.295
4.92,5.265
4.915,5.235
4.895,5.225
4.895,5.22
4.9,5.205
4.885,5.185
4.885,5.16
4.885,5.165
4.895,5.165
4.875,5.155
4.855,5.135
4.87,5.15
4.88,5.15
4.875,5.15
4.87,5.135
4.88,5.13
4.905,5.15
4.9,5.145
4.895,5.135
4.895,5.145
4.895,5.155
4.895,5.15
4.875,5.14
4.885,5.15
4.895,5.165
4.9,5.165
4.9,5.155
4.89,5.15
4.89,5.165
4.88,5.165
4.87,5.15
4.87,5.15
4.865,5.165
4.89,5.16
4.875,5.155
4.87,5.14
4.86,5.14
4.865,5.155
4.885,5.135
4.87,5.115
4.865,5.115
4.86,5.125
4.85,5.125
4.84,5.095
4.845,5.095
4.86,5.105
4.85,5.1
4.845,5.085
4.855,5.08
4.87,5.085
4.865,5.085
4.855,5.07
4.845,5.085
4.845,5.1
4.85,5.11
4.85,5.105
4.84,5.095
4.85,5.115
4.845,5.11
4.83,5.095
4.825,5.09
4.83,5.1
4.84,5.09
4.85,5.1
4.835,5.07
4.84,5.065
4.88,5.045
4.88,5.025
4.895,5.005
4.885,5.01
4.895,5.0
4.895,4.99
4.885,4.965
4.885,4.955
4.89,4.97
4.89,4.965
4.89,4.975
4.88,4.985
4.88,4.995
4.88,4.99
4.865,4.975
4.835,4.97
4.84,4.985
4.855,4.985
4.845,4.98
4.85,4.975
4.85,4.985
4.855,4.98
4.835,4.985
4.835,4.97
4.84,4.975
4.86,4.99
4.855,5.0
4.855,5.0
4.86,5.05
4.88,5.255
4.915,5.76
4.98,6.075
5.105,5.805
5.49,5.52
5.95,5.445
5.87,5.38
5.44,5.345
5.245,5.325
5.28,5.27
5.295,5.15
5.32,4.96
5.365,4.73
5.42,4.445
5.455,4.125
5.455,3.81
5.465,3.485
5.465,3.4
5.48,3.02
5.54,2.855
5.57,2.73
5.59,2.58
5.575,2.405
5.505,2.265
5.4,2.195
5.345,2.155
5.285,2.115
5.165,2.06
5.0,2.05
4.92,2.045
4.925,2.045
4.935,2.035
4.9,2.055
4.865,2.125
4.83,2.225
4.76,2.35
4.715,2.53
4.695,2.75
4.725,2.985
4.725,3.265
4.71,3.58
4.69,3.9
4.685,4.0
4.725,4.475
4.725,4.745
4.715,4.99
4.725,5.21
4.705,5.385
4.695,5.555
4.695,5.725
4.725,5.85
4.735,5.925
4.745,5.975
4.76,6.035
4.77,6.095
4.77,6.14
4.775,6.175
4.78,6.235
4.78,6.3
4.78,6.335
4.77,6.385
4.77,6.42
4.79,6.475
4.8,6.545
4.8,6.59
4.79,6.625
4.79,6.685
4.785,6.705
4.795,6.805
4.77,6.84
4.78,6.9
4.8,6.955
4.81,7.01
4.815,7.045
4.805,7.08
4.835,7.125
4.84,7.155
4.845,7.16
4.85,7.17
4.88,7.19
4.89,7.19
4.875,7.18
4.885,7.145
4.925,7.14
4.965,7.09
4.965,7.035
4.97,6.97
4.985,6.9
4.995,6.84
5.005,6.74
5.005,6.655
5.005,6.575
5.01,6.555
5.025,6.39
5.02,6.285
5.015,6.195
5.04,6.125
5.03,6.025
5.02,5.94
5.0,5.875
5.015,5.8
5.02,5.72
5.01,5.645
5.0,5.59
4.99,5.55
4.985,5.495
4.98,5.44
4.96,5.4
4.96,5.375
4.965,5.34
4.95,5.295
4.945,5.26
4.93,5.25
4.93,5.225
4.94,5.205
4.91,5.17
4.91,5.175
4.915,5.18
4.94,5.15
4.925,5.135
4.92,5.135
4.93,5.13
4.925,5.125
4.92,5.105
4.91,5.1
4.92,5.105
4.925,5.1
4.925,5.08
4.915,5.08
4.925,5.095
4.925,5.09
4.91,5.085
4.91,5.09
4.915,5.1
4.915,5.1
4.925,5.095
4.915,5.1
4.905,5.105
4.91,5.11
4.91,5.1
4.91,5.1
4.89,5.115
4.895,5.12
4.91,5.105
4.895,5.1
4.88,5.105
4.885,5.115
4.895,5.105
4.88,5.095
4.865,5.105
4.885,5.11
4.885,5.1
4.865,5.085
4.86,5.085
4.865,5.08
4.865,5.08
4.855,5.07
4.855,5.065
4.86,5.07
4.87,5.07
4.86,5.06
4.845,5.055
4.845,5.055
4.855,5.05
4.855,5.045
4.85,5.035
4.845,5.035
4.85,5.05
4.845,5.025
4.84,5.01
4.84,5.02
4.855,5.02
4.835,5.0
4.835,5.005
4.825,5.0
4.835,5.01
4.84,5.015
4.83,4.995
4.83,4.99
4.835,5.0
4.83,5.0
4.815,4.975
4.815,4.975
4.825,4.995
4.835,4.98
4.825,4.97
4.81,4.96
4.815,4.97
4.83,4.98
4.815,4.97
4.805,4.95
4.81,4.965
4.82,4.97
4.82,4.97
4.805,4.95
4.81,4.96
4.82,4.965
4.815,4.955
4.825,4.945
4.81,4.965
4.81,4.98
4.815,4.985
4.81,4.975
4.805,4.98
4.805,5.005
4.81,5.01
4.805,5.0
4.8,5.005
4.815,5.02
4.815,5.02
4.81,5.02
4.805,5.01
4.825,5.025
4.865,5.03
4.87,5.065
4.88,5.21
4.91,5.645
4.93,5.81
5.085,5.815
5.365,5.495
5.85,5.395
6.01,5.335
5.645,5.275
5.345,5.22
5.28,5.155
5.315,5.05
5.315,4.885
5.33,4.615
5.335,4.305
5.345,3.99
5.36,3.665
5.335,3.33
5.32,3.085
5.33,2.89
5.35,2.7
5.345,2.545
5.335,2.39
5.335,2.255
5.315,2.145
5.26,2.085
5.165,2.05
5.125,2.035
5.11,2.03
4.96,2.005
4.84,1.98
4.795,2.0
4.84,2.0
4.88,2.015
4.885,2.03
4.85,2.095
4.82,2.205
4.765,2.345
4.715,2.49
4.685,2.675
4.7,2.89
4.71,3.16
4.705,3.46
4.685,3.755
4.68,4.04
4.685,4.315
4.68,4.565
4.665,4.81
4.655,5.04
4.645,5.24
4.64,5.405
4.63,5.56
4.64,5.7
4.645,5.74
4.65,5.855
4.645,5.905
4.64,5.965
4.67,6.03
4.67,6.065
4.67,6.1
4.665,6.14
4.675,6.195
4.665,6.24
4.66,6.275
4.665,6.315
4.67,6.375
4.685,6.405
4.675,6.445
4.675,6.49
4.69,6.545
4.695,6.58
4.68,6.625
4.675,6.675
4.69,6.73
4.705,6.765
4.705,6.81
4.7,6.83
4.695,6.885
4.7,6.9
4.715,6.96
4.71,6.98
4.7,7.02
4.735,7.04
4.735,7.05
4.745,7.055
4.765,7.065
4.79,7.07
4.8,7.055
4.8,7.015
4.8,6.985
4.825,6.96
4.835,6.915
4.845,6.86
4.845,6.795
4.875,6.74
4.89,6.66
4.89,6.585
4.88,6.5
4.9,6.435
4.92,6.34
4.91,6.24
4.91,6.15
4.905,6.085
4.915,6.06
4.93,5.925
4.915,5.835
4.915,5.785
4.93,5.725
4.93,5.655
4.915,5.58
4.905,5.535
4.915,5.49
4.91,5.45
4.89,5.385
4.87,5.355
4.885,5.33
4.875,5.295
4.855,5.245
4.85,5.22
4.86,5.205
4.875,5.195
4.865,5.16
4.845,5.14
4.85,5.145
4.875,5.13
4.855,5.11
4.845,5.095
4.845,5.1
4.85,5.105
4.855,5.1
4.85,5.085
4.84,5.085
4.86,5.09
4.86,5.085
4.865,5.07
4.845,5.085
4.86,5.09
4.865,5.09
4.865,5.08
4.855,5.09
4.86,5.105
4.87,5.095
4.855,5.09
4.855,5.09
4.86,5.1
4.865,5.1
4.855,5.095
4.86,5.085
4.85,5.11
4.87,5.1
4.85,5.1
4.84,5.095
4.84,5.11
4.85,5.11
4.855,5.1
4.84,5.09
4.835,5.085
4.845,5.095
4.845,5.085
4.835,5.075
4.83,5.07
4.83,5.08
4.84,5.07
4.825,5.06
4.82,5.055
4.83,5.05
4.83,5.05
4.825,5.03
4.82,5.03
4.815,5.04
4.82,5.035
4.815,5.025
4.795,5.02
4.805,5.02
4.825,5.005
4.82,5.0
4.795,4.985
4.805,5.005
4.81,5.0
4.81,4.995
4.805,4.98
4.805,4.985
4.815,4.99
4.825,4.99
4.805,4.975
4.8,4.975
4.815,4.975
4.825,4.97
4.805,4.955
4.795,4.955
4.81,4.975
4.815,4.965
4.8,4.95
4.79,4.95
4.795,4.965
4.82,4.955
4.81,4.945
4.8,4.945
4.8,4.945
4.82,4.95
4.815,4.945
4.795,4.935
4.8,4.94
4.805,4.95
4.805,4.945
4.805,4.925
4.8,4.94
4.805,4.95
4.81,4.935
4.805,4.925
4.805,4.93
4.82,4.935
4.83,4.935
4.83,4.925
4.815,4.94
4.82,4.945
4.835,4.955
4.825,4.97
4.83,4.97
4.855,5.045
4.875,5.36
4.91,5.84
4.99,5.79
5.22,5.485
5.695,5.375
5.85,5.31
5.485,5.255
5.25,5.195
5.225,5.175
5.28,4.915
5.285,4.65
5.285,4.32
5.32,3.98
5.335,3.62
5.315,3.25
5.275,2.975
5.3,2.76
5.31,2.565
5.305,2.44
5.27,2.3
5.255,2.18
5.22,2.09
5.13,2.025
5.045,2.005
4.99,1.995
4.91,1.975
4.765,1.965
4.7,1.95
4.73,1.965
4.785,1.98
4.815,1.975
4.81,2.005
4.765,2.075
4.75,2.1
4.72,2.325
4.715,2.515
4.72,2.795
4.74,3.135
4.755,3.5
4.73,3.81
4.71,4.15
4.715,4.475
4.71,4.765
4.685,4.995
4.655,5.23
4.655,5.445
4.67,5.625
4.68,5.735
4.675,5.815
4.67,5.88
4.675,5.93
4.67,5.955
4.66,5.995
4.655,6.04
4.665,6.075
4.655,6.1
4.635,6.125
4.64,6.18
4.645,6.2
4.64,6.235
4.63,6.265
4.625,6.325
4.64,6.36
4.635,6.395
4.615,6.43
4.61,6.475
4.62,6.535
4.63,6.575
4.62,6.61
4.63,6.665
4.65,6.73
4.66,6.765
4.665,6.795
4.65,6.84
4.665,6.88
4.685,6.925
4.695,6.95
4.69,6.975
4.71,7.025
4.725,7.035
4.735,7.045
4.735,7.035
4.765,7.065
4.78,7.07
4.8,7.035
4.805,7.0
4.835,6.99
4.85,6.945
4.87,6.895
4.87,6.83
4.88,6.765
4.905,6.685
4.93,6.595
4.94,6.505
4.945,6.41
4.97,6.33
4.975,6.23
4.945,6.125
4.955,6.025
4.97,5.945
4.98,5.855
4.99,5.765
4.975,5.68
4.965,5.635
4.955,5.58
4.94,5.505
4.94,5.445
4.945,5.415
4.94,5.405
4.95,5.325
4.925,5.295
4.91,5.285
4.91,5.255
4.905,5.225
4.91,5.215
4.895,5.205
4.895,5.21
4.91,5.2
4.9,5.17
4.91,5.16
4.925,5.17
4.92,5.175
4.88,5.15
4.87,5.155
4.88,5.155
4.885,5.155
4.89,5.135
4.885,5.14
4.88,5.16
4.89,5.155
4.875,5.15
4.865,5.14
4.87,5.155
4.88,5.165
4.89,5.16
4.87,5.15
4.875,5.155
4.89,5.155
4.885,5.15
4.86,5.135
4.855,5.13
4.865,5.14
4.875,5.135
4.88,5.125
4.87,5.11
4.885,5.13
4.89,5.115
4.88,5.1
4.86,5.09
4.85,5.09
4.86,5.095
4.86,5.085
4.84,5.065
4.85,5.065
4.86,5.065
4.855,5.05
4.83,5.05
4.845,5.045
4.855,5.045
4.855,5.04
4.83,5.015
4.83,5.025
4.855,5.03
4.85,5.015
4.83,5.005
4.83,5.005
4.845,5.02
4.84,5.0
4.825,4.99
4.81,4.995
4.815,4.995
4.835,4.99
4.835,4.975
4.82,4.97
4.83,4.995
4.84,4.985
4.83,4.975
4.815,4.965
4.825,4.975
4.84,4.975
4.84,4.97
4.82,4.955
4.815,4.97
4.82,4.98
4.83,4.955
4.83,4.945
4.835,4.96
4.85,4.96
4.85,4.96
4.825,4.945
4.83,4.955
4.855,4.96
4.855,4.965
4.845,4.945
4.835,4.95
4.855,4.965
4.865,4.955
4.87,4.94
4.85,4.935
4.86,4.95
4.865,4.95
4.855,4.955
4.835,4.95
4.835,4.965
4.855,4.96
4.885,4.975
4.89,5.03
4.91,5.3
4.92,5.435
5.025,5.955
5.205,5.575
5.715,5.41
5.965,5.37
5.615,5.31
5.325,5.225
5.31,5.12
5.355,4.915
5.365,4.625
5.375,4.255
5.385,3.865
5.395,3.47
5.37,3.1
5.35,2.805
5.36,2.585
5.38,2.455
5.385,2.305
5.355,2.14
5.29,2.065
5.185,2.025
5.08,2.0
4.965,1.965
4.805,1.955
4.7,1.955
4.68,1.965
4.715,1.96
4.725,1.96
4.715,2.025
4.705,2.105
4.67,2.24
4.64,2.43
4.655,2.685
4.69,3.025
4.725,3.39
4.735,3.72
4.74,4.08
4.765,4.44
4.775,4.745
4.755,5.005
4.74,5.265
4.74,5.51
4.785,5.7
4.8,5.825
4.8,5.9
4.81,5.975
4.81,6.015
4.815,6.05
4.81,6.085
4.825,6.15
4.83,6.17
4.835,6.22
4.815,6.26
4.84,6.295
4.88,6.315
4.91,6.34
4.89,6.35
4.88,6.38
4.895,6.42
4.905,6.445
4.895,6.48
4.88,6.525
4.88,6.575
4.885,6.63
4.885,6.675
4.875,6.72
4.875,6.755
4.865,6.795
4.835,6.82
4.8,6.85
4.81,6.89
4.84,6.92
4.865,6.94
4.86,6.955
4.87,6.97
4.865,6.975
4.875,6.96
4.87,6.945
4.875,6.92
4.895,6.9
4.89,6.855
4.905,6.805
4.925,6.755
4.955,6.69
4.975,6.615
4.98,6.52
4.995,6.435
5.03,6.36
5.04,6.265
5.04,6.155
5.03,6.055
5.04,5.975
5.04,5.89
5.04,5.79
5.04,5.71
5.06,5.655
5.045,5.575
5.035,5.525
5.0,5.465
4.995,5.43
5.0,5.42
5.015,5.335
4.995,5.29
5.0,5.275
4.995,5.255
4.985,5.225
4.965,5.2
4.95,5.195
4.96,5.185
4.96,5.18
4.94,5.16
4.935,5.16
4.94,5.16
4.945,5.155
4.94,5.155
4.925,5.15
4.925,5.16
4.935,5.155
4.93,5.155
4.92,5.145
4.925,5.155
4.935,5.16
4.92,5.15
4.915,5.135
4.905,5.165
4.91,5.17
4.915,5.155
4.9,5.155
4.9,5.155
4.9,5.155
4.905,5.155
4.9,5.135
4.9,5.135
4.905,5.145
4.905,5.14
4.89,5.12
4.88,5.125
4.895,5.125
4.9,5.115
4.89,5.1
4.87,5.1
4.87,5.095
4.885,5.085
4.875,5.065
4.86,5.07
4.865,5.07
4.88,5.055
4.87,5.045
4.845,5.04
4.855,5.055
4.86,5.045
4.87,5.025
4.86,5.015
4.855,5.015
4.87,5.02
4.87,5.015
4.855,4.995
4.845,5.005
4.86,5.005
4.855,5.005
4.845,4.985
4.84,4.985
4.86,5.0
4.865,4.99
4.845,4.985
4.85,4.98
4.85,4.99
4.85,4.98
4.845,4.97
4.835,4.96
4.845,4.975
4.85,4.975
4.84,4.96
4.82,4.95
4.83,4.975
4.835,4.98
4.845,4.96
4.83,4.96
4.83,4.965
4.845,4.97
4.845,4.96
4.825,4.955
4.83,4.955
4.84,4.965
4.845,4.955
4.835,4.955
4.835,4.96
4.85,4.96
4.865,4.965
4.86,4.955
4.835,4.95
4.855,4.985
4.86,4.985
4.855,4.99
4.855,5.025
4.87,5.165
4.905,5.565
4.94,6.01
5.01,5.875
5.28,5.55
5.41,5.48
5.915,5.38
5.535,5.325
5.275,5.27
5.28,5.185
5.315,5.03
5.325,4.775
5.34,4.465
5.375,4.1
5.39,3.705
5.38,3.335
5.355,3.04
5.37,2.795
5.385,2.605
5.365,2.45
5.325,2.28
5.295,2.165
5.22,2.095
5.115,2.045
5.035,2.02
4.96,2.005
4.835,1.99
4.71,1.985
4.665,1.97
4.7,1.99
4.72,2.0
4.72,2.04
4.67,2.12
4.65,2.27
4.66,2.47
4.665,2.675
4.68,2.94
4.7,3.28
4.73,3.63
4.73,3.97
4.735,4.285
4.73,4.62
4.725,4.9
4.735,5.135
4.7,5.35
4.695,5.555
4.725,5.725
4.73,5.82
4.73,5.87
4.73,5.935
4.745,6.005
4.76,6.05
4.76,6.08
4.75,6.12
4.755,6.165
4.75,6.185
4.765,6.23
4.755,6.25
4.745,6.3
4.76,6.355
4.755,6.385
4.735,6.415
4.735,6.465
4.75,6.52
4.755,6.56
4.75,6.61
4.75,6.67
4.755,6.73
4.765,6.785
4.745,6.82
4.755,6.865
4.76,6.91
4.78,6.935
4.785,6.955
4.795,6.985
4.82,7.025
4.84,7.055
4.85,7.055
4.845,7.055
4.85,7.055
4.855,7.065
4.87,7.02
4.875,6.99
4.885,6.975
4.915,6.945
4.925,6.91
4.925,6.84
4.915,6.78
4.925,6.71
4.93,6.63
4.925,6.535
4.945,6.445
4.965,6.37
4.98,6.27
4.97,6.165
4.96,6.075
4.99,5.995
4.99,5.905
4.98,5.82
4.97,5.735
4.97,5.68
4.975,5.61
4.96,5.545
4.945,5.49
4.945,5.445
4.95,5.425
4.935,5.36
4.915,5.32
4.91,5.305
4.92,5.27
4.9,5.25
4.905,5.235
4.88,5.225
4.895,5.22
4.9,5.215
4.89,5.195
4.88,5.2
4.88,5.215
4.89,5.2
4.875,5.195
4.86,5.19
4.87,5.215
4.875,5.22
4.875,5.205
4.865,5.2
4.88,5.22
4.875,5.22
4.88,5.21
4.86,5.195
4.86,5.225
4.86,5.22
4.86,5.21
4.855,5.2
4.85,5.21
4.85,5.21
4.86,5.195
4.845,5.185
4.84,5.18
4.855,5.19
4.845,5.18
4.835,5.155
4.83,5.15
4.84,5.16
4.84,5.145
4.83,5.12
4.815,5.12
4.82,5.13
4.825,5.12
4.82,5.105
4.81,5.09
4.82,5.1
4.82,5.1
4.82,5.07
4.79,5.06
4.805,5.065
4.81,5.065
4.815,5.045
4.8,5.04
4.8,5.045
4.81,5.045
4.815,5.04
4.805,5.025
4.81,5.03
4.8,5.035
4.81,5.03
4.8,5.01
4.8,5.015
4.81,5.02
4.8,5.025
4.805,5.01
4.8,5.005
4.8,5.01
4.815,5.01
4.8,4.995
4.79,5.0
4.8,5.0
4.81,4.995
4.805,4.995
4.79,4.99
4.795,5.0
4.8,5.01
4.815,4.995
4.805,4.995
4.795,4.995
4.815,5.0
4.815,4.995
4.805,4.98
4.805,4.99
4.82,5.0
4.82,4.995
4.82,4.985
4.805,4.98
4.825,5.0
4.82,4.995
4.825,4.975
4.825,4.99
4.845,5.01
4.84,5.025
4.845,5.065
4.86,5.32
4.905,5.86
4.975,6.01
5.15,5.645
5.575,5.415
5.92,5.36
5.95,5.34
5.335,5.13
5.235,4.95
5.265,4.75
5.27,4.495
5.265,4.165
5.26,3.88
5.265,3.65
5.275,3.45
5.265,3.245
5.23,2.93
5.235,2.665
5.245,2.495
5.215,2.355
5.155,2.225
5.085,2.135
5.005,2.085
4.925,2.045
4.825,2.015
4.705,1.995
4.61,2.005
4.565,2.0
4.59,2.0
4.64,2.02
4.685,2.07
4.7,2.095
4.705,2.285
4.685,2.475
4.69,2.745
4.72,3.085
4.755,3.44
4.79,3.805
4.805,4.175
4.795,4.47
4.76,4.775
4.76,5.04
4.745,5.305
4.75,5.545
4.765,5.7
4.775,5.8
4.78,5.885
4.78,5.95
4.795,6.005
4.795,6.05
4.77,6.09
4.78,6.14
4.805,6.175
4.785,6.2
4.78,6.225
4.795,6.28
4.805,6.3
4.795,6.345
4.78,6.365
4.78,6.415
4.795,6.455
4.785,6.485
4.78,6.52
4.78,6.57
4.785,6.615
4.79,6.65
4.8,6.68
4.795,6.73
4.805,6.78
4.81,6.82
4.81,6.85
4.8,6.895
4.81,6.945
4.83,6.965
4.83,6.995
4.825,7.005
4.845,7.03
4.87,7.05
4.87,7.035
4.86,7.03
4.87,7.04
4.885,7.04
4.91,6.98
4.915,6.93
4.925,6.89
4.935,6.84
4.96,6.75
4.945,6.675
4.955,6.595
4.97,6.52
4.99,6.415
4.985,6.33
4.985,6.24
5.0,6.15
5.015,6.05
5.01,5.955
4.995,5.865
5.005,5.805
5.01,5.725
5.0,5.635
4.99,5.575
4.985,5.525
4.98,5.47
4.965,5.415
4.95,5.36
4.94,5.345
4.945,5.34
4.94,5.285
4.925,5.245
4.915,5.245
4.915,5.245
4.915,5.23
4.905,5.205
4.9,5.205
4.91,5.21
4.91,5.205
4.895,5.195
4.89,5.21
4.9,5.23
4.9,5.235
4.895,5.22
4.88,5.23
4.88,5.24
4.89,5.235
4.88,5.235
4.875,5.23
4.885,5.24
4.885,5.24
4.89,5.215
4.895,5.195
4.905,5.19
4.905,5.18
4.915,5.15
4.905,5.135
4.91,5.135
4.915,5.13
4.925,5.11
4.9,5.09
4.905,5.085
4.915,5.095
4.91,5.105
4.875,5.095
4.855,5.1
4.855,5.095
4.855,5.08
4.825,5.055
4.81,5.06
4.815,5.065
4.835,5.06
4.83,5.045
4.815,5.03
4.815,5.04
4.815,5.04
4.8,5.025
4.795,5.015
4.8,5.025
4.805,5.02
4.795,5.0
4.78,5.0
4.78,5.0
4.8,5.01
4.805,5.0
4.785,4.985
4.78,4.98
4.8,5.0
4.805,4.99
4.79,4.97
4.78,4.965
4.785,4.99
4.79,4.975
4.785,4.96
4.785,4.98
4.8,4.99
4.8,4.985
4.795,4.975
4.77,4.965
4.79,4.98
4.795,4.98
4.79,4.97
4.77,4.97
4.78,4.98
4.785,4.975
4.785,4.97
4.775,4.965
4.775,4.975
4.795,4.985
4.79,4.975
4.79,4.97
4.79,4.97
4.785,4.98
4.79,4.98
4.785,4.97
4.78,4.98
4.805,4.99
4.81,4.975
4.81,4.965
4.805,4.965
4.81,4.99
4.825,4.98
4.82,4.98
4.805,4.97
4.82,4.995
4.845,4.995
4.84,5.01
4.835,5.08
4.86,5.38
4.875,5.515
4.985,6.01
5.165,5.645
5.66,5.455
6.015,5.405
5.725,5.34
5.345,5.275
5.26,5.2
5.295,5.055
5.31,4.84
5.31,4.51
5.305,4.16
5.315,3.845
5.325,3.49
5.31,3.12
5.285,2.86
5.285,2.695
5.3,2.55
5.29,2.45
5.27,2.375
5.28,2.29
5.28,2.18
5.23,2.11
5.165,2.075
5.11,2.055
5.09,2.05
4.935,2.0
4.8,1.99
4.77,2.005
4.82,2.025
4.855,2.015
4.82,2.055
4.79,2.125
4.78,2.24
4.755,2.375
4.715,2.53
4.71,2.72
4.745,2.97
4.745,3.255
4.725,3.57
4.705,3.895
4.725,4.215
4.75,4.52
4.75,4.795
4.715,5.04
4.71,5.255
4.7,5.445
4.715,5.615
4.715,5.76
4.73,5.86
4.725,5.89
4.735,6.0
4.725,6.045
4.74,6.11
4.755,6.165
4.775,6.215
4.755,6.25
4.75,6.3
4.76,6.36
4.76,6.4
4.76,6.44
4.75,6.51
4.76,6.555
4.76,6.605
4.775,6.655
4.755,6.715
4.785,6.765
4.795,6.815
4.795,6.865
4.77,6.915
4.79,6.98
4.8,7.015
4.795,7.05
4.795,7.09
4.81,7.145
4.825,7.165
4.84,7.2
4.825,7.22
4.835,7.245
4.855,7.26
4.88,7.26
4.86,7.24
4.87,7.23
4.89,7.22
4.91,7.17
4.92,7.115
4.925,7.065
4.95,7.015
4.955,6.945
4.97,6.86
4.97,6.785
4.985,6.725
5.005,6.615
4.995,6.525
4.98,6.43
4.99,6.35
5.005,6.25
5.0,6.14
4.995,6.055
4.99,5.975
4.995,5.955
4.985,5.81
4.975,5.73
4.97,5.675
4.985,5.62
4.985,5.555
4.96,5.5
4.95,5.465
4.955,5.435
4.96,5.395
4.955,5.345
4.945,5.325
4.94,5.305
4.935,5.28
4.93,5.245
4.92,5.225
4.93,5.22
4.955,5.2
4.935,5.175
4.92,5.17
4.93,5.17
4.93,5.17
4.915,5.14
4.915,5.135
4.915,5.14
4.925,5.145
4.945,5.14
4.93,5.125
4.935,5.12
4.95,5.135
4.95,5.125
4.925,5.115
4.905,5.125
4.92,5.14
4.915,5.13
4.905,5.125
4.9,5.13
4.91,5.135
4.915,5.14
4.91,5.12
4.915,5.13
4.94,5.15
4.94,5.135
4.93,5.125
4.895,5.12
4.905,5.13
4.905,5.125
4.895,5.12
4.875,5.115
4.88,5.115
4.885,5.12
4.89,5.115
4.89,5.1
4.885,5.105
4.895,5.105
4.9,5.09
4.895,5.09
4.875,5.1
4.87,5.105
4.88,5.1
4.865,5.095
4.86,5.105
4.875,5.12
4.88,5.11
4.875,5.095
4.85,5.085
4.875,5.115
4.885,5.09
4.895,5.075
4.89,5.06
4.88,5.06
4.885,5.055
4.885,5.015
4.9,5.01
4.925,5.005
4.945,5.005
4.955,4.97
4.93,4.955
4.93,4.955
4.925,4.965
4.905,4.97
4.885,4.98
4.88,4.985
4.88,4.995
4.88,4.98
4.86,4.97
4.855,4.975
4.865,4.975
4.865,4.97
4.865,4.96
4.885,4.97
4.895,4.98
4.88,4.98
4.86,4.965
4.875,4.965
4.885,4.985
4.895,4.98
4.865,4.97
4.855,4.965
4.87,4.97
4.88,4.975
4.885,4.96
4.865,4.96
4.87,4.975
4.89,4.99
4.91,4.995
4.9,5.02
4.905,5.155
4.945,5.575
5.0,6.03
5.1,5.875
5.43,5.56
5.92,5.46
5.935,5.39
5.495,5.34
5.28,5.305
5.295,5.26
5.325,5.115
5.35,4.91
5.385,4.645
5.44,4.36
5.48,4.02
5.485,3.665
5.475,3.34
5.48,3.09
5.48,3.025
5.505,2.72
5.505,2.585
5.49,2.45
5.505,2.305
5.465,2.185
5.37,2.12
5.27,2.075
5.18,2.06
5.05,2.035
4.88,2.01
4.77,2.005
4.765,2.03
4.785,2.035
4.79,2.04
4.77,2.11
4.77,2.22
4.745,2.37
4.7,2.525
4.68,2.73
4.71,2.95
4.735,3.235
4.74,3.53
4.72,3.84
4.735,4.155
4.745,4.245
4.76,4.705
4.735,4.955
4.725,5.18
4.725,5.375
4.735,5.53
4.745,5.68
4.755,5.795
4.78,5.875
4.79,5.92
4.79,5.965
4.78,6.035
4.8,6.08
4.8,6.12
4.8,6.155
4.785,6.2
4.795,6.26
4.8,6.3
4.8,6.32
4.785,6.38
4.79,6.44
4.79,6.48
4.79,6.525
4.775,6.575
4.785,6.635
4.79,6.655
4.785,6.72
4.775,6.765
4.78,6.825
4.8,6.87
4.79,6.92
4.795,6.94
4.805,6.99
4.815,7.045
4.825,7.065
4.825,7.09
4.835,7.11
4.86,7.125
4.865,7.125
4.875,7.1
4.87,7.105
4.89,7.105
4.9,7.07
4.91,7.02
4.9,6.97
4.935,6.925
4.96,6.85
4.955,6.765
4.96,6.69
4.97,6.615
4.975,6.59
4.99,6.425
4.985,6.33
4.985,6.24
4.99,6.16
5.0,6.055
4.995,5.96
4.99,5.89
4.99,5.815
5.0,5.745
4.98,5.665
4.965,5.615
4.97,5.575
4.98,5.515
4.955,5.46
4.945,5.415
4.95,5.39
4.96,5.355
4.94,5.32
4.925,5.285
4.925,5.265
4.93,5.245
4.93,5.215
4.915,5.185
4.92,5.195
4.92,5.2
4.915,5.165
4.9,5.155
4.9,5.14
4.915,5.145
4.91,5.13
4.9,5.12
4.9,5.12
4.915,5.13
4.92,5.115
4.895,5.105
4.905,5.115
4.905,5.135
4.905,5.12
4.9,5.12
4.895,5.115
4.9,5.13
4.905,5.13
4.895,5.115
4.89,5.13
4.89,5.13
4.905,5.145
4.895,5.135
4.885,5.13
4.895,5.14
4.9,5.145
4.895,5.14
4.89,5.13
4.885,5.135
4.895,5.145
4.87,5.13
4.87,5.12
4.87,5.13
4.88,5.13
4.875,5.12
4.87,5.11
4.865,5.11
4.875,5.105
4.875,5.11
4.86,5.08
4.855,5.08
4.865,5.09
4.86,5.075
4.855,5.06
4.845,5.055
4.85,5.07
4.86,5.055
4.845,5.045
4.815,5.035
4.835,5.05
4.845,5.055
4.835,5.035
4.825,5.03
4.83,5.035
4.835,5.035
4.83,5.015
4.82,5.015
4.825,5.02
4.83,5.01
4.835,5.015
4.82,4.995
4.825,4.995
4.825,5.04
4.835,5.02
4.81,5.015
4.805,5.005
4.815,5.035
4.82,5.025
4.815,5.025
4.81,5.025
4.82,5.045
4.835,5.055
4.82,5.05
4.805,5.05
4.815,5.055
4.825,5.07
4.84,5.015
4.84,5.005
4.855,5.01
4.87,5.005
4.88,4.99
4.865,4.965
4.86,4.945
4.865,4.94
4.87,4.935
4.85,4.915
4.85,4.925
4.87,4.95
4.875,4.97
4.87,4.98
4.86,5.005
4.87,5.06
4.88,5.285
4.91,5.775
5.005,5.94
5.245,5.655
5.755,5.47
6.03,5.405
5.67,5.345
5.325,5.31
5.26,5.295
5.29,5.07
5.31,4.84
5.33,4.545
5.35,4.23
5.38,3.875
5.375,3.53
5.37,3.245
5.405,3.08
5.42,2.92
5.455,2.795
5.465,2.655
5.48,2.505
5.475,2.355
5.435,2.25
5.35,2.205
5.305,2.18
5.23,2.125
5.115,2.07
4.97,2.06
4.905,2.055
4.88,2.05
4.905,2.03
4.88,2.045
4.885,2.1
4.875,2.125
4.795,2.3
4.725,2.46
4.705,2.665
4.715,2.915
4.725,3.22
4.715,3.58
4.71,3.93
4.72,4.27
4.71,4.585
4.685,4.875
4.67,5.115
4.665,5.35
4.66,5.535
4.655,5.695
4.66,5.825
4.685,5.925
4.68,5.98
4.675,6.02
4.68,6.08
4.69,6.14
4.71,6.19
4.71,6.23
4.71,6.275
4.71,6.335
4.715,6.355
4.72,6.425
4.71,6.46
4.71,6.515
4.725,6.57
4.745,6.61
4.73,6.655
4.725,6.715
4.74,6.77
4.735,6.81
4.745,6.855
4.74,6.91
4.77,6.975
4.76,7.015
4.77,7.055
4.765,7.09
4.78,7.15
4.795,7.15
4.79,7.17
4.79,7.195
4.82,7.21
4.825,7.22
4.83,7.19
4.835,7.17
4.855,7.155
4.865,7.145
4.88,7.06
4.885,7.0
4.895,6.94
4.91,6.87
4.92,6.785
4.915,6.69
4.925,6.595
4.95,6.505
4.96,6.405
4.945,6.31
4.94,6.22
4.955,6.155
4.955,6.06
4.95,5.975
4.945,5.9
4.945,5.835
4.955,5.75
4.94,5.68
4.92,5.62
4.925,5.58
4.925,5.52
4.91,5.47
4.895,5.425
4.89,5.395
4.895,5.38
4.895,5.31
4.87,5.28
4.875,5.265
4.88,5.255
4.885,5.23
4.87,5.215
4.86,5.2
4.87,5.19
4.865,5.175
4.855,5.155
4.85,5.145
4.855,5.16
4.865,5.145
4.86,5.14
4.855,5.145
4.86,5.15
4.865,5.14
4.865,5.135
4.86,5.125
4.85,5.14
4.865,5.135
4.87,5.12
4.865,5.12
4.865,5.14
4.86,5.145
4.87,5.13
4.86,5.13
4.855,5.155
4.875,5.145
4.875,5.135
4.87,5.14
4.865,5.14
4.87,5.16
4.87,5.15
4.85,5.14
4.855,5.145
4.85,5.155
4.865,5.14
4.86,5.135
4.85,5.135
4.86,5.15
4.86,5.14
4.865,5.125
4.84,5.12
4.85,5.13
4.85,5.125
4.845,5.105
4.825,5.105
4.84,5.115
4.85,5.12
4.85,5.09
4.83,5.085
4.835,5.085
4.84,5.085
4.845,5.075
4.835,5.065
4.83,5.06
4.84,5.07
4.84,5.06
4.825,5.04
4.82,5.055
4.82,5.06
4.82,5.045
4.81,5.025
4.81,5.03
4.815,5.05
4.82,5.025
4.82,5.015
4.81,5.015
4.805,5.015
4.825,5.025
4.815,5.015
4.795,5.0
4.81,5.015
4.815,5.02
4.82,5.005
4.81,5.005
4.805,5.015
4.825,5.02
4.815,5.005
4.815,4.99
4.81,5.01
4.82,5.015
4.82,5.005
4.815,4.995
4.81,4.995
4.82,5.01
4.825,4.99
4.815,4.99
4.81,4.995
4.825,5.005
4.825,5.005
4.805,4.99
4.815,4.99
4.82,5.0
4.82,5.0
4.825,5.0
4.81,4.985
4.83,5.0
4.835,5.01
4.84,5.0
4.83,4.995
4.835,5.015
4.85,5.03
4.845,5.04
4.86,5.095
4.875,5.32
4.915,5.8
4.975,5.955
5.15,5.68
5.595,5.505
5.94,5.46
5.68,5.39
5.305,5.335
5.225,5.28
5.265,5.17
5.285,4.96
5.275,4.685
5.275,4.375
5.31,4.09
5.335,3.75
5.335,3.39
5.31,3.105
5.33,2.88
5.335,2.815
5.345,2.535
5.345,2.415
5.32,2.29
5.325,2.18
5.235,2.105
5.115,2.075
5.06,2.05
4.985,2.045
4.87,2.025
4.755,2.015
4.725,2.015
4.76,2.045
4.795,2.045
4.795,2.06
4.78,2.115
4.77,2.215
4.75,2.38
4.73,2.55
4.715,2.78
4.73,3.065
4.735,3.39
4.74,3.715
4.735,4.02
4.735,4.33
4.74,4.425
4.71,4.855
4.68,5.075
4.665,5.275
4.655,5.46
4.66,5.62
4.67,5.74
4.665,5.84
4.66,5.9
4.655,5.945
4.65,5.98
4.655,6.03
4.67,6.085
4.665,6.115
4.65,6.135
4.645,6.19
4.66,6.23
4.67,6.26
4.67,6.295
4.665,6.34
4.675,6.385
4.685,6.42
4.675,6.455
4.665,6.5
4.67,6.56
4.68,6.58
4.7,6.625
4.695,6.67
4.705,6.72
4.71,6.77
4.715,6.8
4.71,6.84
4.72,6.89
4.73,6.94
4.735,6.96
4.745,6.99
4.75,7.03
4.77,7.065
4.785,7.065
4.765,7.08
4.77,7.09
4.785,7.11
4.81,7.105
4.81,7.07
4.81,7.06
4.84,7.04
4.84,7.0
4.865,6.95
4.875,6.89
4.9,6.84
4.91,6.82
4.92,6.685
4.93,6.595
4.935,6.53
4.945,6.425
4.945,6.325
4.945,6.225
4.95,6.155
4.96,6.075
4.965,5.97
4.96,5.89
4.96,5.825
4.975,5.765
4.965,5.685
4.955,5.615
4.94,5.56
4.94,5.51
4.935,5.45
4.92,5.41
4.91,5.37
4.91,5.35
4.92,5.325
4.9,5.29
4.885,5.26
4.9,5.26
4.895,5.265
4.88,5.225
4.87,5.215
4.875,5.2
4.89,5.21
4.89,5.195
4.875,5.175
4.885,5.175
4.88,5.185
4.885,5.18
4.87,5.155
4.87,5.165
4.885,5.18
4.88,5.175
4.865,5.165
4.865,5.165
4.88,5.18
4.885,5.17
4.875,5.16
4.865,5.165
4.875,5.17
4.89,5.16
4.86,5.155
4.825,5.15
4.845,5.17
4.855,5.18
4.88,5.165
4.88,5.15
4.875,5.15
4.865,5.15
4.86,5.135
4.865,5.13
4.86,5.14
4.86,5.14
4.855,5.12
4.84,5.105
4.83,5.11
4.835,5.105
4.83,5.1
4.83,5.085
4.845,5.08
4.865,5.085
4.865,5.07
4.83,5.055
4.805,5.045
4.825,5.055
4.855,5.045
4.845,5.04
4.825,5.025
4.825,5.035
4.83,5.04
4.84,5.02
4.825,5.02
4.83,5.02
4.83,5.02
4.83,5.005
4.82,5.0
4.82,5.01
4.825,5.005
4.81,4.995
4.825,4.99
4.835,4.99
4.855,5.0
4.845,4.985
4.83,4.975
4.815,4.98
4.815,4.995
4.81,4.98
4.82,4.97
4.81,4.98
4.815,4.985
4.815,4.975
4.82,4.975
4.82,4.97
4.83,4.975
4.825,4.97
4.825,4.97
4.805,4.96
4.8,4.975
4.805,4.975
4.81,4.955
4.82,4.96
4.84,4.975
4.83,4.97
4.825,4.965
4.815,4.96
4.845,4.965
4.845,4.975
4.845,4.96
4.83,4.945
4.85,4.96
4.85,4.98
4.83,4.975
4.815,4.97
4.83,5.02
4.875,5.17
4.925,5.62
4.98,5.895
5.11,5.66
5.555,5.45
5.72,5.42
5.745,5.32
5.365,5.255
5.27,5.19
5.3,5.085
5.31,4.88
5.29,4.595
5.285,4.26
5.33,3.9
5.35,3.48
5.33,3.135
5.3,2.87
5.305,2.655
5.325,2.485
5.31,2.335
5.27,2.195
5.22,2.105
5.095,2.055
4.98,2.015
4.88,2.005
4.77,1.99
4.66,1.99
4.6,1.985
4.59,1.985
4.61,2.015
4.63,2.035
4.61,2.125
4.565,2.255
4.54,2.455
4.585,2.675
4.655,2.935
4.695,3.275
4.72,3.63
4.74,3.96
4.755,4.27
4.77,4.57
4.755,4.84
4.745,5.07
4.77,5.27
4.79,5.455
4.805,5.63
4.815,5.765
4.785,5.835
4.77,5.885
4.76,5.925
4.765,5.985
4.785,6.03
4.79,6.06
4.79,6.095
4.815,6.135
4.82,6.15
4.8,6.185
4.78,6.215
4.78,6.26
4.78,6.29
4.76,6.32
4.74,6.345
4.73,6.395
4.735,6.44
4.715,6.46
4.71,6.5
4.71,6.55
4.74,6.605
4.75,6.635
4.755,6.66
4.76,6.71
4.795,6.76
4.805,6.795
4.815,6.83
4.795,6.875
4.785,6.915
4.79,6.945
4.805,6.95
4.83,6.965
4.84,6.98
4.835,6.985
4.855,6.955
4.875,6.93
4.91,6.92
4.955,6.885
4.96,6.83
4.955,6.76
4.97,6.705
5.005,6.635
5.015,6.535
5.02,6.445
5.045,6.35
5.08,6.28
5.085,6.18
5.06,6.075
5.05,5.99
5.05,5.905
5.05,5.81
5.04,5.715
5.025,5.65
5.025,5.605
5.035,5.545
5.02,5.475
5.005,5.43
4.99,5.405
4.995,5.39
4.985,5.315
4.975,5.295
4.97,5.28
4.97,5.265
4.965,5.23
4.95,5.215
4.945,5.215
4.945,5.205
4.945,5.2
4.935,5.18
4.93,5.175
4.94,5.18
4.94,5.18
4.93,5.165
4.92,5.165
4.92,5.175
4.915,5.17
4.92,5.16
4.92,5.17
4.915,5.18
4.91,5.185
4.905,5.17
4.915,5.165
4.92,5.185
4.925,5.18
4.925,5.17
4.92,5.16
4.915,5.17
4.92,5.165
4.915,5.155
4.895,5.155
4.91,5.155
4.91,5.16
4.915,5.14
4.895,5.125
4.905,5.13
4.92,5.135
4.905,5.115
4.89,5.1
4.88,5.1
4.9,5.105
4.9,5.1
4.885,5.07
4.87,5.065
4.88,5.07
4.88,5.065
4.87,5.045
4.86,5.04
4.86,5.045
4.865,5.05
4.865,5.025
4.845,5.02
4.85,5.03
4.855,5.025
4.85,5.01
4.84,5.015
4.845,5.01
4.855,5.015
4.855,5.01
4.835,4.995
4.845,4.99
4.855,5.015
4.845,5.0
4.835,4.98
4.835,4.99
4.84,4.995
4.85,4.99
4.835,4.985
4.825,4.98
4.84,4.99
4.85,4.995
4.84,4.99
4.82,4.98
4.825,4.985
4.83,4.99
4.825,4.985
4.815,4.98
4.825,4.985
4.825,5.0
4.815,4.985
4.81,4.985
4.825,4.99
4.83,5.0
4.83,4.985
4.825,4.975
4.82,4.98
4.825,5.005
4.825,4.995
4.82,4.98
4.83,4.995
4.84,5.0
4.84,5.005
4.84,5.02
4.855,5.17
4.89,5.615
4.96,5.98
5.11,5.695
5.55,5.455
5.9,5.415
5.92,5.41
5.275,5.31
5.215,5.235
5.275,5.075
5.3,4.82
5.315,4.485
5.34,4.115
5.355,3.735
5.345,3.38
5.335,3.075
5.325,2.82
5.325,2.635
5.315,2.49
5.27,2.315
5.21,2.17
5.125,2.11
5.03,2.095
4.955,2.05
4.845,2.025
4.7,2.015
4.65,2.025
4.67,2.03
4.7,2.015
4.69,2.06
4.675,2.155
4.67,2.19
4.645,2.475
4.64,2.705
4.675,3.02
4.7,3.375
4.705,3.725
4.695,4.07
4.715,4.435
4.715,4.74
4.695,5.0
4.68,5.22
4.67,5.45
4.685,5.635
4.695,5.765
4.69,5.85
4.695,5.92
4.705,5.99
4.725,6.045
4.705,6.085
4.705,6.14
4.715,6.18
4.72,6.215
4.72,6.24
4.715,6.28
4.735,6.33
4.745,6.345
4.745,6.365
4.735,6.4
4.735,6.44
4.74,6.465
4.75,6.475
4.75,6.51
4.74,6.545
4.75,6.59
4.755,6.62
4.745,6.66
4.745,6.72
4.75,6.79
4.74,6.835
4.725,6.855
4.715,6.905
4.715,6.955
4.715,6.97
4.72,6.99
4.72,7.005
4.725,7.035
4.75,7.03
4.735,7.02
4.74,7.005
4.75,7.0
4.765,6.995
4.78,6.91
4.78,6.855
4.805,6.805
4.82,6.74
4.84,6.645
4.855,6.56
4.865,6.48
4.88,6.395
4.89,6.295
4.895,6.18
4.9,6.08
4.92,6.01
4.92,5.91
4.91,5.83
4.91,5.76
4.93,5.69
4.92,5.63
4.9,5.555
4.885,5.495
4.895,5.465
4.9,5.415
4.87,5.37
4.865,5.335
4.855,5.325
4.865,5.31
4.865,5.265
4.84,5.25
4.845,5.245
4.86,5.255
4.85,5.23
4.83,5.22
4.84,5.22
4.835,5.225
4.84,5.215
4.825,5.21
4.815,5.22
4.82,5.225
4.825,5.22
4.81,5.21
4.815,5.215
4.815,5.22
4.83,5.24
4.81,5.215
4.805,5.225
4.825,5.23
4.825,5.23
4.815,5.215
4.81,5.22
4.81,5.225
4.82,5.225
4.81,5.215
4.8,5.2
4.8,5.22
4.8,5.215
4.805,5.195
4.795,5.18
4.79,5.185
4.805,5.18
4.8,5.17
4.79,5.145
4.79,5.15
4.8,5.15
4.8,5.14
4.785,5.115
4.775,5.11
4.79,5.12
4.78,5.11
4.775,5.095
4.755,5.085
4.775,5.095
4.78,5.095
4.775,5.065
4.765,5.055
4.77,5.075
4.77,5.075
4.765,5.055
4.765,5.05
4.765,5.06
4.77,5.05
4.77,5.04
4.755,5.035
4.775,5.045
4.77,5.04
4.765,5.035
4.76,5.02
4.76,5.025
4.765,5.04
4.77,5.03
4.755,5.02
4.75,5.015
4.76,5.03
4.76,5.03
4.75,5.005
4.75,5.015
4.765,5.025
4.76,5.025
4.77,5.01
4.755,5.005
4.77,5.02
4.775,5.025
4.765,5.01
4.76,5.0
4.765,5.005
4.78,5.01
4.785,5.01
4.765,5.0
4.77,5.01
4.78,5.015
4.775,5.005
4.775,5.005
4.77,5.015
4.785,5.035
4.795,5.025
4.795,5.025
4.8,5.07
4.83,5.22
4.85,5.685
4.895,5.98
5.05,5.715
5.48,5.465
5.88,5.38
5.65,5.28
5.265,5.17
5.195,5.025
5.21,4.975
5.23,4.55
5.215,4.255
5.235,4.0
5.26,3.785
5.255,3.58
5.22,3.37
5.22,3.12
5.235,2.835
5.215,2.59
5.185,2.44
5.14,2.32
5.085,2.22
5.005,2.135
4.9,2.095
4.825,2.065
4.735,2.05
4.605,2.03
4.515,2.005
4.525,2.03
4.595,2.06
4.645,2.085
4.65,2.14
4.635,2.26
4.65,2.43
4.655,2.49
4.67,2.91
4.69,3.245
4.74,3.615
4.785,3.99
4.765,4.31
4.735,4.61
4.73,4.895
4.72,5.165
4.715,5.405
4.71,5.595
4.72,5.75
4.745,5.85
4.75,5.915
4.75,5.95
4.74,6.02
4.765,6.085
4.76,6.105
4.755,6.135
4.745,6.175
4.76,6.22
4.76,6.245
4.755,6.28
4.735,6.3
4.745,6.345
4.75,6.36
4.75,6.41
4.745,6.45
4.755,6.5
4.76,6.535
4.755,6.565
4.745,6.615
4.765,6.665
4.78,6.72
4.78,6.765
4.765,6.805
4.765,6.855
4.785,6.91
4.78,6.94
4.78,6.97
4.785,7.01
4.805,7.05
4.81,7.07
4.825,7.075
4.85,7.08
4.875,7.09
4.885,7.08
4.89,7.03
4.89,7.01
4.92,6.97
4.94,6.955
4.96,6.84
4.94,6.77
4.96,6.69
4.97,6.605
4.98,6.52
4.975,6.435
4.98,6.375
4.985,6.285
4.97,6.18
4.955,6.07
4.945,5.975
4.955,5.9
4.96,5.805
4.94,5.72
4.925,5.65
4.945,5.6
4.935,5.535
4.915,5.465
4.9,5.43
4.905,5.395
4.9,5.35
4.88,5.32
4.855,5.285
4.875,5.27
4.87,5.255
4.85,5.23
4.85,5.215
4.855,5.215
4.86,5.205
4.85,5.205
4.84,5.185
4.85,5.195
4.85,5.19
4.85,5.195
4.835,5.185
4.84,5.19
4.84,5.205
4.835,5.2
4.83,5.18
4.82,5.19
4.84,5.2
4.83,5.205
4.815,5.185
4.805,5.195
4.805,5.205
4.805,5.21
4.8,5.185
4.795,5.19
4.805,5.2
4.805,5.195
4.805,5.18
4.8,5.175
4.8,5.17
4.8,5.18
4.8,5.155
4.785,5.15
4.78,5.15
4.79,5.145
4.785,5.135
4.76,5.11
4.78,5.115
4.795,5.12
4.8,5.1
4.8,5.075
4.79,5.085
4.8,5.09
4.78,5.08
4.77,5.065
4.765,5.065
4.77,5.06
4.775,5.065
4.745,5.045
4.735,5.04
4.765,5.05
4.77,5.045
4.765,5.03
4.745,5.03
4.755,5.045
4.775,5.035
4.77,5.035
4.775,5.025
4.785,5.04
4.79,5.03
4.775,5.025
4.77,5.015
4.765,5.015
4.78,5.015
4.765,5.015
4.76,5.0
4.755,5.005
4.78,5.015
4.785,5.01
4.775,4.995
4.765,4.995
4.775,5.025
4.78,5.01
4.795,4.995
4.805,4.985
4.805,5.005
4.815,5.0
4.785,4.995
4.78,4.985
4.775,5.005
4.785,5.005
4.795,4.995
4.785,4.99
4.785,4.995
4.8,5.005
4.785,5.0
4.79,4.99
4.8,4.995
4.815,5.0
4.835,5.0
4.84,4.995
4.84,5.015
4.845,5.06
4.855,5.24
4.875,5.715
4.945,5.97
5.075,5.7
5.465,5.465
5.865,5.365
5.705,5.295
5.33,5.215
5.245,5.175
5.22,4.81
5.23,4.565
5.26,4.265
5.26,3.945
5.265,3.645
5.255,3.405
5.275,3.21
5.265,2.975
5.26,2.685
5.23,2.455
5.195,2.34
5.18,2.24
5.115,2.14
5.025,2.085
4.91,2.06
4.83,2.04
4.72,2.025
4.585,1.99
4.5,2.01
4.505,2.03
4.555,2.035
4.6,2.045
4.595,2.105
4.61,2.235
4.615,2.285
4.62,2.58
4.63,2.835
4.67,3.15
4.72,3.48
4.775,3.835
4.795,4.195
4.78,4.51
4.76,4.805
4.74,5.045
4.73,5.275
4.725,5.515
4.725,5.685
4.75,5.79
4.765,5.86
4.765,5.92
4.785,5.975
4.805,6.025
4.825,6.055
4.815,6.1
4.82,6.145
4.82,6.18
4.84,6.2
4.845,6.24
4.845,6.28
4.845,6.295
4.815,6.325
4.81,6.37
4.82,6.405
4.83,6.455
4.845,6.47
4.845,6.505
4.86,6.555
4.855,6.605
4.84,6.63
4.835,6.67
4.835,6.72
4.86,6.755
4.855,6.785
4.855,6.81
4.87,6.86
4.905,6.9
4.925,6.92
4.915,6.925
4.91,6.97
4.92,6.985
4.935,6.995
4.94,6.99
4.945,6.975
4.96,6.975
4.97,6.985
4.99,6.91
4.995,6.87
5.01,6.825
5.02,6.77
5.005,6.695
5.0,6.62
5.025,6.545
5.03,6.45
5.025,6.345
5.025,6.26
5.055,6.175
5.065,6.1
5.05,5.995
5.055,5.89
5.065,5.815
5.065,5.74
5.05,5.67
5.03,5.59
5.03,5.53
5.05,5.505
5.04,5.44
5.0,5.38
4.975,5.355
4.975,5.325
4.98,5.32
4.98,5.27
4.94,5.255
4.94,5.245
4.94,5.245
4.92,5.23
4.91,5.22
4.91,5.235
4.91,5.235
4.905,5.225
4.9,5.205
4.91,5.215
4.94,5.215
4.93,5.215
4.93,5.2
4.94,5.21
4.94,5.225
4.94,5.2
4.93,5.16
4.955,5.15
4.985,5.16
4.98,5.155
4.945,5.13
4.935,5.13
4.935,5.13
4.93,5.125
4.95,5.11
4.975,5.11
4.99,5.13
4.955,5.13
4.925,5.13
4.9,5.11
4.87,5.115
4.87,5.12
4.875,5.1
4.895,5.08
4.89,5.095
4.88,5.095
4.865,5.09
4.845,5.065
4.84,5.065
4.855,5.07
4.835,5.06
4.835,5.04
4.815,5.03
4.835,5.04
4.855,5.035
4.875,5.025
4.87,5.025
4.845,5.02
4.845,5.015
4.845,5.0
4.835,4.99
4.805,5.0
4.79,5.0
4.795,4.985
4.815,4.98
4.845,4.995
4.87,5.0
4.85,5.0
4.825,4.98
4.82,4.98
4.835,4.98
4.84,4.985
4.83,4.97
4.825,4.98
4.83,4.975
4.85,4.98
4.84,4.97
4.845,4.98
4.84,4.985
4.825,4.995
4.805,4.975
4.82,4.98
4.845,4.99
4.85,4.985
4.835,4.98
4.825,4.975
4.84,4.995
4.865,4.985
4.875,4.98
4.86,4.965
4.84,4.985
4.845,4.985
4.84,4.975
4.825,4.965
4.81,4.98
4.83,4.98
4.835,4.975
4.845,4.96
4.835,4.975
4.85,4.98
4.85,4.975
4.845,4.965
4.855,4.975
4.87,4.985
4.875,4.99
4.855,4.98
4.855,4.985
4.86,5.005
4.87,5.01
4.87,5.055
4.87,5.26
4.92,5.765
4.99,6.015
5.14,5.72
5.57,5.5
5.995,5.445
5.805,5.39
5.425,5.31
5.3,5.24
5.315,5.145
5.325,5.0
5.32,4.775
5.345,4.485
5.345,4.175
5.37,3.895
5.345,3.55
5.315,3.235
5.29,2.995
5.285,2.82
5.285,2.675
5.26,2.57
5.25,2.455
5.225,2.325
5.21,2.285
5.055,2.17
4.97,2.13
4.915,2.095
4.815,2.075
4.68,2.04
4.58,2.04
4.57,2.055
4.625,2.05
4.655,2.055
4.65,2.105
4.63,2.195
4.615,2.32
4.59,2.455
4.59,2.62
4.615,2.815
4.655,3.05
4.67,3.335
4.66,3.64
4.66,3.94
4.68,4.235
4.71,4.515
4.695,4.77
4.675,4.995
4.665,5.2
4.665,5.265
4.66,5.555
4.67,5.7
4.68,5.8
4.705,5.87
4.7,5.905
4.7,5.945
4.73,6.0
4.725,6.055
4.72,6.085
4.715,6.13
4.715,6.18
4.72,6.22
4.725,6.26
4.725,6.29
4.715,6.34
4.72,6.41
4.715,6.43
4.72,6.465
4.7,6.515
4.71,6.585
4.715,6.61
4.71,6.655
4.705,6.705
4.72,6.76
4.725,6.78
4.72,6.85
4.71,6.905
4.72,6.965
4.74,7.005
4.75,7.025
4.74,7.05
4.755,7.095
4.775,7.115
4.77,7.12
4.78,7.12
4.785,7.135
4.82,7.14
4.825,7.105
4.835,7.075
4.85,7.05
4.87,7.015
4.87,6.96
4.875,6.885
4.89,6.83
4.92,6.77
4.93,6.685
4.925,6.595
4.93,6.525
4.95,6.455
4.955,6.425
4.945,6.26
4.94,6.175
4.955,6.11
4.955,6.04
4.94,5.955
4.935,5.87
4.93,5.82
4.935,5.745
4.935,5.67
4.915,5.61
4.915,5.56
4.905,5.52
4.9,5.465
4.88,5.42
4.88,5.405
4.88,5.385
4.88,5.35
4.865,5.3
4.855,5.3
4.87,5.29
4.875,5.26
4.85,5.235
4.835,5.225
4.865,5.22
4.875,5.215
4.85,5.19
4.845,5.185
4.855,5.195
4.865,5.19
4.855,5.175
4.85,5.17
4.855,5.185
4.86,5.2
4.85,5.19
4.835,5.175
4.835,5.18
4.86,5.195
4.845,5.19
4.85,5.185
4.85,5.21
4.86,5.225
4.855,5.23
4.85,5.235
4.845,5.245
4.855,5.255
4.85,5.26
4.85,5.23
4.85,5.215
4.87,5.215
4.875,5.23
4.875,5.185
4.865,5.165
4.88,5.175
4.865,5.15
4.845,5.12
4.83,5.105
4.845,5.115
4.845,5.105
4.835,5.1
4.825,5.1
4.82,5.125
4.82,5.125
4.8,5.11
4.785,5.095
4.78,5.105
4.8,5.11
4.8,5.105
4.78,5.085
4.765,5.08
4.78,5.09
4.795,5.085
4.77,5.065
4.765,5.065
4.77,5.075
4.78,5.07
4.775,5.04
4.755,5.045
4.76,5.05
4.785,5.065
4.755,5.045
4.75,5.04
4.76,5.04
4.765,5.045
4.755,5.035
4.745,5.03
4.755,5.03
4.76,5.045
4.755,5.03
4.755,5.025
4.755,5.035
4.765,5.045
4.765,5.03
4.755,5.02
4.75,5.03
4.77,5.045
4.76,5.03
4.765,5.025
4.75,5.025
4.77,5.025
4.765,5.03
4.765,5.02
4.75,5.015
4.765,5.03
4.775,5.04
4.77,5.025
4.755,5.015
4.765,5.045
4.775,5.04
4.77,5.035
4.77,5.025
4.775,5.05
4.775,5.05
4.785,5.055
4.785,5.065
4.805,5.145
4.84,5.415
4.87,5.9
4.935,5.955
5.17,5.635
5.665,5.48
5.83,5.43
5.47,5.375
5.215,5.32
5.215,5.26
5.235,5.23
5.25,4.85
5.25,4.535
5.28,4.195
5.3,3.825
5.29,3.455
5.265,3.135
5.245,2.91
5.26,2.74
5.255,2.605
5.24,2.505
5.235,2.42
5.24,2.305
5.2,2.195
5.115,2.12
5.02,2.115
4.97,2.08
4.88,2.05
4.745,2.025
4.645,2.025
4.655,2.035
4.695,2.035
4.72,2.05
4.705,2.085
4.7,2.18
4.695,2.21
4.64,2.435
4.62,2.6
4.635,2.81
4.65,3.085
4.64,3.38
4.63,3.705
4.63,4.035
4.65,4.35
4.655,4.64
4.65,4.89
4.635,5.12
4.64,5.31
4.635,5.47
4.63,5.645
4.65,5.795
4.665,5.895
4.66,5.945
4.655,6.005
4.665,6.055
4.685,6.12
4.695,6.16
4.68,6.2
4.665,6.24
4.685,6.3
4.695,6.32
4.68,6.375
4.675,6.43
4.685,6.49
4.69,6.545
4.675,6.585
4.68,6.64
4.69,6.69
4.69,6.745
4.695,6.775
4.685,6.83
4.685,6.9
4.7,6.945
4.7,6.99
4.695,7.025
4.71,7.08
4.735,7.135
4.74,7.16
4.735,7.175
4.745,7.205
4.76,7.235
4.77,7.25
4.76,7.25
4.775,7.245
4.795,7.245
4.805,7.245
4.815,7.19
4.815,7.145
4.84,7.13
4.865,7.07
4.86,6.995
4.87,6.93
4.895,6.85
4.895,6.77
4.9,6.67
4.9,6.565
4.91,6.485
4.92,6.39
4.925,6.3
4.915,6.2
4.915,6.13
4.93,6.04
4.925,5.97
4.91,5.875
4.91,5.82
4.915,5.76
4.905,5.695
4.895,5.63
4.885,5.575
4.89,5.54
4.89,5.52
4.88,5.435
4.86,5.4
4.865,5.39
4.875,5.36
4.86,5.32
4.85,5.295
4.86,5.285
4.865,5.28
4.855,5.255
4.84,5.24
4.845,5.235
4.86,5.23
4.845,5.215
4.835,5.2
4.845,5.21
4.87,5.195
4.85,5.195
4.85,5.175
4.845,5.195
4.855,5.195
4.855,5.19
4.835,5.185
4.83,5.185
4.85,5.185
4.855,5.19
4.835,5.175
4.835,5.18
4.835,5.19
4.85,5.195
4.84,5.175
4.83,5.18
4.835,5.185
4.845,5.195
4.84,5.19
4.83,5.175
4.835,5.185
4.84,5.185
4.84,5.17
4.815,5.16
4.815,5.175
4.83,5.175
4.815,5.16
4.81,5.15
4.805,5.155
4.815,5.16
4.81,5.15
4.8,5.125
4.79,5.135
4.815,5.13
4.815,5.13
4.82,5.11
4.795,5.1
4.8,5.1
4.815,5.1
4.8,5.085
4.795,5.08
4.81,5.09
4.805,5.075
4.795,5.06
4.78,5.055
4.79,5.06
4.8,5.06
4.8,5.05
4.8,5.045
4.8,5.06
4.81,5.08
4.81,5.075
4.805,5.08
4.785,5.09
4.795,5.1
4.805,5.095
4.785,5.09
4.78,5.085
4.795,5.085
4.805,5.09
4.81,5.085
4.805,5.075
4.8,5.085
4.815,5.07
4.82,5.04
4.83,5.025
4.845,5.025
4.84,5.01
4.845,5.0
4.84,4.98
4.85,4.98
4.86,4.965
4.855,4.95
4.85,4.945
4.845,4.98
4.855,4.995
4.835,4.99
4.81,4.975
4.795,4.98
4.8,5.0
4.8,4.99
4.795,4.99
4.795,4.985
4.815,5.01
4.82,5.015
4.825,5.12
4.84,5.475
4.905,5.95
5.015,5.865
5.345,5.53
5.83,5.415
5.805,5.385
5.375,5.325
5.195,5.265
5.22,5.19
5.235,5.07
5.27,4.865
5.305,4.59
5.315,4.27
5.355,3.975
5.405,3.665
5.405,3.35
5.4,3.145
5.44,2.99
5.48,2.855
5.49,2.7
5.49,2.525
5.48,2.365
5.44,2.285
5.425,2.26
5.3,2.145
5.205,2.095
5.1,2.07
4.97,2.045
4.915,2.02
4.91,2.005
4.915,2.015
4.905,2.045
4.88,2.08
4.805,2.165
4.745,2.305
4.715,2.465
4.685,2.645
4.665,2.865
4.66,3.165
4.655,3.5
4.625,3.82
4.615,4.1
4.635,4.435
4.655,4.74
4.66,4.995
4.655,5.21
4.635,5.42
4.645,5.615
4.655,5.67
4.645,5.865
4.64,5.95
4.65,6.025
4.675,6.095
4.69,6.13
4.695,6.185
4.7,6.255
4.715,6.315
4.715,6.355
4.71,6.395
4.715,6.455
4.75,6.505
4.745,6.55
4.725,6.6
4.72,6.67
4.715,6.73
4.705,6.77
4.7,6.815
4.735,6.87
4.75,6.925
4.775,6.97
4.76,7.0
4.75,7.06
4.755,7.11
4.76,7.125
4.76,7.155
4.755,7.195
4.775,7.23
4.785,7.24
4.8,7.235
4.82,7.24
4.85,7.24
4.855,7.22
4.855,7.195
4.84,7.15
4.84,7.105
4.865,7.04
4.88,6.975
4.905,6.895
4.915,6.815
4.92,6.74
4.895,6.635
4.885,6.535
4.905,6.44
4.955,6.365
4.96,6.25
4.94,6.145
4.94,6.05
4.94,5.975
4.95,5.95
4.935,5.79
4.93,5.72
4.94,5.67
4.935,5.6
4.905,5.54
4.88,5.485
4.885,5.44
4.895,5.4
4.89,5.36
4.855,5.315
4.86,5.3
4.875,5.28
4.885,5.245
4.87,5.22
4.855,5.205
4.85,5.19
4.845,5.17
4.855,5.15
4.86,5.14
4.885,5.145
4.89,5.135
4.87,5.11
4.855,5.105
4.855,5.12
4.865,5.125
4.865,5.095
4.855,5.08
4.855,5.09
4.86,5.09
4.855,5.085
4.84,5.09
4.845,5.1
4.865,5.1
4.86,5.1
4.85,5.095
4.84,5.11
4.845,5.115
4.83,5.115
4.84,5.105
4.865,5.12
4.88,5.11
4.88,5.115
4.86,5.11
4.84,5.12
4.855,5.13
4.865,5.125
4.865,5.125
4.85,5.12
4.84,5.13
4.835,5.13
4.825,5.115
4.815,5.11
4.82,5.11
4.84,5.105
4.845,5.105
4.845,5.09
4.84,5.095
4.83,5.095
4.82,5.085
4.805,5.06
4.81,5.075
4.835,5.08
4.845,5.055
4.86,5.04
4.825,5.055
4.81,5.05
4.795,5.04
4.825,5.035
4.84,5.04
4.84,5.035
4.815,5.03
4.795,5.015
4.78,5.01
4.815,5.02
4.835,5.01
4.835,5.0
4.82,4.995
4.815,5.01
4.82,5.005
4.79,4.99
4.77,4.985
4.785,4.99
4.805,5.0
4.81,4.99
4.805,4.98
4.8,4.985
4.815,5.0
4.805,4.98
4.805,4.955
4.805,4.98
4.8,4.97
4.795,4.975
4.78,4.965
4.77,4.965
4.79,4.98
4.815,4.96
4.845,4.95
4.845,4.965
4.84,4.965
4.84,4.97
4.82,4.955
4.835,4.95
4.83,4.96
4.795,4.965
4.775,4.955
4.8,4.96
4.835,4.97
4.845,4.975
4.84,4.98
4.825,4.995
4.83,5.015
4.835,5.035
4.83,5.035
4.825,5.08
4.855,5.22
4.92,5.64
4.98,6.045
5.105,5.87
5.525,5.57
5.99,5.46
5.85,5.39
5.44,5.305
5.3,5.24
5.36,5.135
5.375,5.09
5.34,4.695
5.325,4.375
5.38,4.055
5.405,3.72
5.37,3.37
5.335,3.09
5.295,2.895
5.32,2.715
5.31,2.56
5.29,2.42
5.26,2.28
5.21,2.155
5.1,2.08
5.02,2.04
4.945,2.015
4.865,1.995
4.735,1.98
4.585,1.97
4.53,1.97
4.57,1.99
4.62,1.99
4.64,2.025
4.64,2.105
4.63,2.24
4.63,2.285
4.58,2.56
4.585,2.755
4.63,3.01
4.66,3.29
4.67,3.58
4.655,3.895
4.675,4.185
4.705,4.45
4.715,4.72
4.715,4.96
4.695,5.18
4.695,5.365
4.695,5.54
4.705,5.67
4.715,5.77
4.715,5.825
4.725,5.875
4.715,5.92
4.72,5.97
4.755,6.02
4.76,6.055
4.76,6.095
4.765,6.125
4.78,6.175
4.79,6.19
4.77,6.225
4.755,6.275
4.77,6.31
4.78,6.35
4.77,6.385
4.765,6.43
4.775,6.475
4.79,6.52
4.785,6.555
4.78,6.595
4.78,6.655
4.795,6.69
4.79,6.73
4.78,6.76
4.79,6.8
4.81,6.845
4.805,6.87
4.805,6.885
4.81,6.92
4.83,6.95
4.845,6.945
4.845,6.945
4.85,6.955
4.875,6.945
4.885,6.945
4.89,6.895
4.895,6.86
4.915,6.83
4.935,6.775
4.94,6.7
4.93,6.64
4.94,6.57
4.955,6.49
4.955,6.405
4.945,6.31
4.96,6.225
4.98,6.145
4.97,6.045
4.955,5.965
4.95,5.895
4.955,5.82
4.945,5.75
4.935,5.685
4.915,5.63
4.92,5.58
4.91,5.525
4.9,5.465
4.88,5.435
4.875,5.4
4.88,5.385
4.86,5.31
4.86,5.275
4.87,5.27
4.86,5.25
4.85,5.215
4.845,5.2
4.84,5.185
4.84,5.18
4.835,5.165
4.82,5.145
4.82,5.155
4.835,5.16
4.835,5.145
4.825,5.135
4.815,5.14
4.835,5.14
4.83,5.14
4.82,5.13
4.815,5.14
4.83,5.15
4.835,5.145
4.825,5.135
4.81,5.135
4.82,5.15
4.82,5.15
4.82,5.14
4.815,5.145
4.815,5.155
4.815,5.15
4.815,5.15
4.81,5.14
4.805,5.145
4.815,5.145
4.8,5.135
4.785,5.14
4.775,5.145
4.795,5.145
4.785,5.13
4.785,5.115
4.78,5.12
4.785,5.115
4.775,5.11
4.76,5.09
4.76,5.095
4.77,5.1
4.77,5.085
4.755,5.065
4.745,5.06
4.755,5.07
4.765,5.07
4.75,5.045
4.74,5.04
4.75,5.045
4.75,5.045
4.735,5.04
4.72,5.025
4.72,5.045
4.73,5.03
4.72,5.005
4.72,5.005
4.72,5.02
4.73,5.015
4.725,5.01
4.715,5.005
4.71,5.015
4.73,5.005
4.725,5.0
4.71,4.99
4.71,4.99
4.72,5.0
4.715,4.995
4.72,4.98
4.715,4.985
4.72,4.995
4.715,4.99
4.71,4.985
4.7,4.975
4.705,4.985
4.72,4.995
4.715,4.975
4.705,4.97
4.72,4.99
4.725,4.985
4.72,4.98
4.71,4.965
4.72,4.975
4.725,4.98
4.72,4.98
4.72,4.965
4.715,4.98
4.73,4.975
4.745,4.98
4.735,4.975
4.74,4.99
4.75,5.02
4.77,5.09
4.78,5.41
4.825,5.94
4.98,5.86
5.045,5.745
5.805,5.405
5.68,5.36
5.27,5.325
5.16,5.25
5.185,5.11
5.2,4.885
5.22,4.59
5.245,4.245
5.26,3.865
5.25,3.485
5.235,3.19
5.24,2.95
5.235,2.725
5.22,2.565
5.205,2.43
5.18,2.27
5.125,2.15
5.025,2.07
4.94,2.045
4.88,2.025
4.795,2.0
4.65,1.98
4.56,1.96
4.565,1.98
4.575,1.98
4.625,1.99
4.605,2.04
4.61,2.12
4.595,2.255
4.57,2.42
4.58,2.64
4.615,2.905
4.63,3.265
4.635,3.61
4.625,3.95
4.635,4.3
4.645,4.615
4.62,4.86
4.585,5.11
4.585,5.355
4.605,5.565
4.6,5.7
4.58,5.77
4.575,5.845
4.585,5.89
4.605,5.93
4.585,5.97
4.59,6.02
4.595,6.06
4.605,6.075
4.58,6.12
4.575,6.15
4.585,6.195
4.575,6.22
4.555,6.235
4.545,6.28
4.54,6.315
4.55,6.345
4.545,6.375
4.52,6.41
4.53,6.465
4.545,6.51
4.53,6.55
4.515,6.59
4.52,6.65
4.535,6.69
4.54,6.735
4.535,6.77
4.54,6.83
4.565,6.88
4.565,6.905
4.57,6.93
4.585,6.975
4.61,7.005
4.615,7.01
4.64,7.015
4.64,7.02
4.665,7.015
4.685,6.985
4.7,6.945
4.72,6.9
4.74,6.875
4.76,6.795
4.78,6.71
4.78,6.635
4.81,6.55
4.84,6.465
4.84,6.355
4.84,6.26
4.86,6.165
4.87,6.07
4.86,5.97
4.86,5.875
4.86,5.8
4.865,5.73
4.865,5.655
4.85,5.57
4.85,5.525
4.85,5.485
4.855,5.465
4.82,5.385
4.805,5.355
4.82,5.34
4.815,5.31
4.79,5.275
4.78,5.255
4.78,5.255
4.785,5.235
4.775,5.225
4.775,5.21
4.765,5.22
4.775,5.22
4.77,5.205
4.75,5.2
4.765,5.215
4.775,5.215
4.765,5.21
4.755,5.195
4.755,5.21
4.77,5.21
4.775,5.225
4.765,5.205
4.755,5.215
4.76,5.22
4.765,5.225
4.745,5.195
4.75,5.2
4.765,5.215
4.765,5.195
4.76,5.18
4.74,5.185
4.75,5.185
4.755,5.18
4.75,5.17
4.735,5.145
4.735,5.17
4.755,5.165
4.74,5.145
4.705,5.12
4.725,5.13
4.74,5.125
4.74,5.115
4.725,5.095
4.715,5.1
4.725,5.095
4.725,5.095
4.705,5.065
4.715,5.08
4.72,5.07
4.715,5.065
4.705,5.05
4.7,5.04
4.695,5.055
4.71,5.04
4.715,5.02
4.7,5.015
4.715,5.03
4.71,5.025
4.705,5.015
4.7,5.0
4.7,5.01
4.725,5.01
4.72,5.0
4.7,4.995
4.7,5.005
4.725,5.0
4.72,5.0
4.69,4.99
4.69,4.99
4.71,4.995
4.71,5.005
4.69,4.99
4.71,4.995
4.705,4.995
4.71,5.005
4.7,4.975
4.69,4.97
4.7,4.985
4.715,4.985
4.715,4.97
4.705,4.97
4.705,4.985
4.715,4.975
4.71,4.965
4.7,4.97
4.71,4.975
4.73,4.97
4.72,4.985
4.71,4.975
4.73,4.995
4.755,5.02
4.75,5.075
4.755,5.31
4.82,5.855
4.93,5.945
5.26,5.58
5.785,5.4
5.825,5.36
5.375,5.3
5.245,5.28
5.155,5.12
5.19,4.92
5.205,4.64
5.22,4.285
5.225,3.905
5.225,3.495
5.225,3.16
5.225,2.895
5.235,2.675
5.22,2.525
5.22,2.385
5.205,2.245
5.16,2.125
5.05,2.065
4.99,2.05
4.93,2.015
4.8,1.995
4.675,1.975
4.64,1.98
4.695,1.99
4.725,2.005
4.7,2.02
4.67,2.085
4.65,2.2
4.64,2.24
4.61,2.505
4.61,2.735
4.635,3.055
4.65,3.385
4.64,3.71
4.63,4.035
4.65,4.365
4.655,4.675
4.64,4.93
4.62,5.17
4.61,5.405
4.635,5.595
4.65,5.755
4.645,5.86
4.645,5.945
4.655,6.01
4.665,6.065
4.655,6.1
4.65,6.15
4.66,6.19
4.66,6.225
4.645,6.255
4.66,6.295
4.68,6.33
4.685,6.345
4.675,6.37
4.665,6.41
4.68,6.44
4.695,6.465
4.7,6.49
4.685,6.525
4.69,6.58
4.69,6.605
4.68,6.63
4.675,6.675
4.68,6.76
4.695,6.815
4.68,6.84
4.65,6.87
4.645,6.91
4.65,6.945
4.645,6.96
4.65,6.98
4.66,7.005
4.67,7.03
4.675,7.035
4.655,7.025
4.685,7.02
4.7,7.01
4.705,6.995
4.72,6.92
4.735,6.87
4.74,6.82
4.76,6.74
4.765,6.66
4.775,6.575
4.8,6.485
4.805,6.385
4.805,6.28
4.805,6.175
4.83,6.08
4.845,5.985
4.84,5.89
4.835,5.795
4.835,5.725
4.845,5.65
4.845,5.575
4.845,5.505
4.835,5.46
4.84,5.42
4.84,5.365
4.825,5.32
4.81,5.295
4.81,5.285
4.805,5.27
4.795,5.235
4.79,5.22
4.8,5.22
4.805,5.21
4.8,5.185
4.78,5.185
4.795,5.205
4.795,5.185
4.79,5.165
4.77,5.16
4.775,5.175
4.785,5.19
4.78,5.18
4.77,5.17
4.775,5.18
4.805,5.19
4.795,5.185
4.775,5.175
4.77,5.175
4.78,5.185
4.78,5.175
4.775,5.16
4.775,5.17
4.78,5.18
4.78,5.17
4.765,5.155
4.76,5.16
4.755,5.16
4.765,5.155
4.76,5.135
4.755,5.13
4.78,5.14
4.78,5.135
4.775,5.105
4.75,5.1
4.75,5.105
4.74,5.095
4.74,5.08
4.74,5.075
4.755,5.08
4.765,5.07
4.76,5.06
4.74,5.045
4.735,5.05
4.74,5.05
4.725,5.04
4.725,5.02
4.73,5.03
4.745,5.03
4.755,5.03
4.74,4.995
4.73,5.005
4.74,5.015
4.74,5.0
4.725,5.0
4.73,4.98
4.745,5.0
4.75,4.995
4.74,4.985
4.715,4.97
4.72,4.985
4.735,4.995
4.745,4.975
4.715,4.965
4.725,4.975
4.735,4.975
4.73,4.975
4.725,4.97
4.72,4.96
4.745,4.97
4.75,4.975
4.725,4.96
4.715,4.975
4.73,4.97
4.735,4.97
4.72,4.96
4.715,4.95
4.74,4.965
4.745,4.965
4.74,4.955
4.73,4.945
4.735,4.955
4.74,4.955
4.75,4.945
4.74,4.95
4.745,4.955
4.765,4.965
4.76,4.955
4.75,4.96
4.76,5.0
4.79,5.065
4.805,5.365
4.85,5.88
4.97,5.915
5.305,5.56
5.825,5.385
5.88,5.3
5.45,5.195
5.205,5.1
5.175,5.065
5.18,4.725
5.165,4.48
5.17,4.175
5.185,3.88
5.185,3.65
5.16,3.44
5.15,3.22
5.145,2.94
5.145,2.655
5.125,2.47
5.1,2.355
5.06,2.21
4.98,2.115
4.87,2.065
4.785,2.05
4.72,2.02
4.6,2.0
4.49,1.99
4.44,1.985
4.49,2.005
4.54,2.015
4.56,2.04
4.565,2.12
4.575,2.245
4.57,2.29
4.555,2.63
4.585,2.9
4.63,3.23
4.685,3.56
4.695,3.885
4.695,4.2
4.695,4.485
4.705,4.74
4.69,4.975
4.675,5.22
4.685,5.435
4.695,5.61
4.695,5.715
4.69,5.79
4.72,5.86
4.755,5.915
4.74,5.945
4.75,5.985
4.755,6.035
4.75,6.07
4.74,6.095
4.735,6.125
4.735,6.155
4.765,6.19
4.77,6.205
4.77,6.235
4.785,6.275
4.795,6.315
4.785,6.345
4.775,6.37
4.765,6.41
4.78,6.455
4.765,6.5
4.755,6.525
4.755,6.58
4.8,6.63
4.825,6.67
4.815,6.705
4.8,6.76
4.8,6.805
4.805,6.84
4.81,6.865
4.81,6.895
4.845,6.93
4.865,6.945
4.87,6.96
4.855,6.95
4.88,6.95
4.92,6.935
4.93,6.915
4.95,6.83
4.975,6.765
5.0,6.715
5.03,6.635
5.03,6.535
5.01,6.44
5.005,6.365
5.015,6.28
5.015,6.18
5.0,6.1
5.025,6.025
5.05,5.95
5.015,5.865
4.97,5.765
4.945,5.69
4.94,5.62
4.95,5.55
4.96,5.48
4.975,5.43
4.94,5.385
4.905,5.34
4.89,5.3
4.915,5.255
4.91,5.245
4.9,5.24
4.83,5.195
4.83,5.185
4.88,5.18
4.91,5.165
4.9,5.15
4.86,5.155
4.835,5.17
4.845,5.16
4.85,5.14
4.85,5.145
4.86,5.16
4.875,5.165
4.86,5.15
4.83,5.15
4.83,5.16
4.86,5.155
4.855,5.145
4.84,5.155
4.835,5.165
4.845,5.17
4.86,5.165
4.855,5.16
4.86,5.165
4.875,5.17
4.875,5.175
4.825,5.145
4.805,5.135
4.83,5.145
4.865,5.14
4.85,5.12
4.82,5.125
4.825,5.125
4.84,5.12
4.855,5.105
4.83,5.105
4.835,5.095
4.85,5.085
4.85,5.075
4.83,5.065
4.83,5.065
4.855,5.06
4.855,5.06
4.835,5.045
4.815,5.05
4.815,5.05
4.815,5.035
4.84,5.025
4.85,5.045
4.85,5.045
4.855,5.04
4.85,5.015
4.83,5.015
4.83,5.02
4.83,5.015
4.835,5.005
4.835,5.005
4.85,5.02
4.855,5.01
4.835,4.995
4.8,5.005
4.825,5.01
4.85,4.995
4.85,5.0
4.83,4.99
4.835,5.01
4.86,5.005
4.835,4.995
4.835,4.985
4.825,5.0
4.83,5.01
4.84,5.005
4.83,4.99
4.845,4.995
4.855,4.995
4.85,4.995
4.845,4.98
4.84,4.98
4.84,4.99
4.85,4.985
4.84,4.97
4.845,4.975
4.85,4.985
4.865,4.98
4.85,4.97
4.835,4.97
4.835,4.975
4.855,4.98
4.855,4.975
4.84,4.97
4.855,4.99
4.87,4.995
4.87,4.995
4.87,5.015
4.865,5.11
4.91,5.42
4.955,5.915
5.045,5.93
5.335,5.605
5.84,5.465
5.985,5.445
5.62,5.335
5.32,5.29
5.29,5.225
5.315,5.1
5.315,4.905
5.335,4.655
5.345,4.365
5.365,4.07
5.365,3.72
5.34,3.4
5.315,3.15
5.305,2.9
5.29,2.68
5.255,2.555
5.215,2.43
5.175,2.285
5.085,2.17
4.965,2.11
4.865,2.08
4.8,2.065
4.715,2.035
4.58,2.015
4.465,2.02
4.43,2.025
4.435,2.02
4.48,2.025
4.495,2.06
4.49,2.14
4.48,2.245
4.47,2.385
4.5,2.575
4.545,2.8
4.595,3.08
4.61,3.38
4.635,3.7
4.655,4.01
4.685,4.32
4.69,4.6
4.68,4.845
4.69,5.075
4.68,5.275
4.69,5.445
4.69,5.59
4.71,5.715
4.725,5.79
4.735,5.835
4.725,5.88
4.74,5.93
4.76,5.97
4.765,5.98
4.745,6.03
4.745,6.065
4.745,6.105
4.76,6.14
4.755,6.15
4.745,6.185
4.755,6.225
4.765,6.255
4.745,6.27
4.73,6.315
4.745,6.37
4.76,6.4
4.75,6.415
4.73,6.47
4.74,6.53
4.755,6.57
4.76,6.595
4.745,6.635
4.74,6.69
4.755,6.725
4.765,6.755
4.76,6.775
4.77,6.825
4.785,6.86
4.79,6.875
4.79,6.905
4.8,6.91
4.82,6.93
4.83,6.935
4.835,6.91
4.84,6.905
4.86,6.89
4.885,6.865
4.89,6.82
4.89,6.77
4.915,6.73
4.93,6.685
4.94,6.605
4.935,6.51
4.955,6.445
4.98,6.355
4.99,6.27
4.98,6.175
4.985,6.095
4.995,6.02
5.0,5.945
4.99,5.855
4.98,5.775
4.99,5.7
4.995,5.67
4.975,5.555
4.965,5.495
4.98,5.465
4.98,5.4
4.98,5.335
4.97,5.3
4.95,5.26
4.94,5.245
4.92,5.21
4.905,5.19
4.915,5.19
4.91,5.2
4.895,5.19
4.885,5.185
4.885,5.195
4.88,5.185
4.86,5.19
4.845,5.18
4.85,5.185
4.86,5.195
4.855,5.18
4.845,5.18
4.84,5.19
4.85,5.2
4.86,5.195
4.845,5.19
4.84,5.185
4.84,5.2
4.85,5.2
4.84,5.195
4.83,5.19
4.84,5.195
4.845,5.185
4.835,5.18
4.82,5.165
4.82,5.18
4.835,5.165
4.82,5.16
4.805,5.16
4.815,5.16
4.815,5.15
4.815,5.145
4.795,5.12
4.805,5.13
4.815,5.12
4.815,5.1
4.795,5.09
4.79,5.09
4.795,5.09
4.79,5.085
4.795,5.075
4.785,5.065
4.79,5.065
4.795,5.07
4.79,5.05
4.78,5.05
4.795,5.05
4.8,5.045
4.785,5.03
4.775,5.03
4.775,5.045
4.795,5.045
4.79,5.035
4.765,5.025
4.775,5.035
4.77,5.035
4.79,5.015
4.775,5.005
4.765,5.015
4.785,5.035
4.775,5.025
4.77,5.02
4.76,5.015
4.775,5.025
4.78,5.025
4.775,5.02
4.765,5.015
4.765,5.02
4.78,5.015
4.78,5.005
4.76,5.01
4.775,5.03
4.785,5.015
4.775,5.01
4.77,4.995
4.78,5.005
4.79,5.015
4.79,5.01
4.78,5.0
4.78,5.015
4.8,5.015
4.79,5.005
4.775,4.995
4.77,5.005
4.79,5.015
4.795,5.0
4.79,5.0
4.795,4.99
4.805,5.005
4.8,5.0
4.805,4.995
4.795,5.005
4.81,5.015
4.825,5.01
4.81,5.0
4.81,5.01
4.825,5.045
4.835,5.09
4.84,5.23
4.865,5.7
4.915,6.065
5.05,5.825
5.395,5.54
5.825,5.45
5.785,5.41
5.415,5.36
5.245,5.315
5.23,5.24
5.24,5.135
5.27,4.96
5.285,4.715
5.285,4.415
5.3,4.12
5.315,3.805
5.315,3.695
5.295,3.19
5.275,2.96
5.31,2.78
5.325,2.65
5.305,2.53
5.285,2.4
5.27,2.275
5.215,2.19
5.125,2.145
5.04,2.105
4.995,2.095
4.9,2.075
4.78,2.05
4.715,2.04
4.735,2.055
4.79,2.065
4.795,2.075
4.775,2.1
4.745,2.18
4.735,2.275
4.695,2.395
4.67,2.555
4.68,2.755
4.69,3.005
4.705,3.095
4.675,3.57
4.66,3.88
4.685,4.175
4.705,4.45
4.695,4.71
4.67,4.935
4.66,5.14
4.65,5.33
4.645,5.505
4.645,5.665
4.675,5.785
4.69,5.87
4.69,5.92
4.685,5.965
4.705,6.02
4.7,6.075
4.7,6.105
4.695,6.135
4.7,6.195
4.715,6.225
4.71,6.265
4.7,6.3
4.705,6.335
4.7,6.39
4.705,6.41
4.68,6.455
4.685,6.51
4.7,6.555
4.715,6.61
4.7,6.64
4.695,6.69
4.7,6.75
4.705,6.79
4.705,6.825
4.7,6.87
4.71,6.93
4.74,6.965
4.725,6.995
4.72,7.015
4.74,7.06
4.76,7.095
4.765,7.105
4.755,7.12
4.78,7.135
4.79,7.145
4.815,7.14
4.805,7.115
4.82,7.095
4.85,7.075
4.865,7.06
4.855,6.96
4.87,6.905
4.895,6.85
4.91,6.765
4.915,6.665
4.92,6.585
4.94,6.505
4.945,6.415
4.945,6.31
4.95,6.225
4.955,6.15
4.965,6.06
4.96,5.96
4.945,5.865
4.945,5.82
4.96,5.755
4.95,5.68
4.94,5.615
4.925,5.58
4.935,5.525
4.93,5.48
4.91,5.435
4.91,5.395
4.91,5.375
4.915,5.36
4.895,5.31
4.89,5.295
4.895,5.285
4.9,5.26
4.875,5.23
4.875,5.22
4.885,5.23
4.89,5.22
4.88,5.205
4.865,5.195
4.885,5.21
4.89,5.2
4.88,5.185
4.87,5.19
4.88,5.19
4.89,5.19
4.885,5.185
4.87,5.175
4.875,5.18
4.88,5.195
4.88,5.19
4.875,5.185
4.87,5.2
4.885,5.225
4.89,5.23
4.85,5.23
4.85,5.22
4.865,5.24
4.865,5.235
4.85,5.215
4.845,5.22
4.865,5.24
4.88,5.24
4.88,5.225
4.86,5.205
4.865,5.2
4.885,5.175
4.885,5.15
4.87,5.14
4.885,5.13
4.895,5.12
4.89,5.095
4.86,5.075
4.86,5.08
4.87,5.075
4.86,5.065
4.86,5.06
4.85,5.06
4.845,5.08
4.84,5.075
4.825,5.05
4.815,5.045
4.81,5.05
4.815,5.035
4.8,5.035
4.785,5.025
4.78,5.035
4.785,5.03
4.775,5.02
4.765,5.02
4.775,5.03
4.775,5.015
4.785,5.015
4.75,5.01
4.77,5.025
4.78,5.015
4.775,5.01
4.755,4.995
4.77,5.01
4.79,5.01
4.79,5.01
4.765,5.0
4.76,5.01
4.77,5.015
4.78,5.005
4.775,4.99
4.77,4.99
4.785,5.01
4.78,5.005
4.78,4.995
4.775,4.995
4.79,5.01
4.795,5.015
4.8,5.01
4.775,5.005
4.785,5.01
4.8,5.005
4.785,5.0
4.775,4.995
4.78,5.01
4.78,5.01
4.78,5.01
4.79,5.005
4.805,5.02
4.815,5.03
4.825,5.045
4.81,5.04
4.83,5.11
4.85,5.35
4.855,5.46
4.915,6.005
5.085,5.69
5.535,5.495
5.83,5.42
5.555,5.35
5.235,5.31
5.19,5.255
5.23,5.115
5.23,4.905
5.24,4.615
5.27,4.295
5.29,3.94
5.29,3.585
5.265,3.22
5.265,2.955
5.265,2.75
5.27,2.595
5.225,2.52
5.205,2.445
5.22,2.35
5.21,2.23
5.135,2.17
5.075,2.14
5.045,2.125
5.025,2.11
4.815,2.06
4.695,2.055
4.675,2.065
4.73,2.065
4.77,2.07
4.765,2.1
4.74,2.17
4.725,2.255
4.68,2.355
4.64,2.505
4.645,2.685
4.675,2.875
4.675,3.1
4.66,3.42
4.65,3.74
4.67,4.03
4.695,4.31
4.705,4.585
4.695,4.87
4.7,5.095
4.68,5.3
4.675,5.48
4.685,5.65
4.72,5.8
4.715,5.84
4.695,5.955
4.715,6.015
4.745,6.08
4.76,6.125
4.75,6.165
4.73,6.23
4.73,6.285
4.73,6.335
4.73,6.365
4.72,6.425
4.745,6.48
4.755,6.53
4.75,6.575
4.74,6.615
4.74,6.68
4.755,6.74
4.77,6.785
4.76,6.82
4.77,6.895
4.785,6.95
4.775,6.985
4.75,7.03
4.76,7.09
4.795,7.13
4.81,7.15
4.805,7.18
4.8,7.21
4.83,7.23
4.85,7.245
4.855,7.23
4.84,7.225
4.855,7.22
4.86,7.195
4.87,7.15
4.885,7.105
4.915,7.055
4.94,7.005
4.93,6.935
4.915,6.84
4.935,6.775
4.95,6.7
4.96,6.595
4.965,6.5
4.98,6.42
4.995,6.325
5.005,6.23
4.985,6.14
4.985,6.045
4.99,5.97
4.99,5.94
4.94,5.795
4.925,5.73
4.95,5.69
4.955,5.615
4.96,5.555
4.95,5.505
4.955,5.47
4.95,5.425
4.94,5.375
4.92,5.335
4.91,5.33
4.9,5.31
4.885,5.28
4.865,5.26
4.875,5.265
4.88,5.25
4.885,5.22
4.88,5.21
4.925,5.205
4.935,5.195
4.905,5.18
4.88,5.16
4.88,5.18
4.885,5.18
4.895,5.175
4.905,5.155
4.895,5.17
4.895,5.175
4.895,5.16
4.895,5.15
4.875,5.16
4.88,5.165
4.9,5.18
4.905,5.16
4.895,5.155
4.895,5.17
4.9,5.18
4.865,5.175
4.845,5.165
4.89,5.185
4.93,5.185
4.93,5.17
4.905,5.165
4.87,5.18
4.855,5.19
4.86,5.175
4.875,5.165
4.905,5.175
4.91,5.185
4.905,5.18
4.86,5.15
4.845,5.145
4.865,5.16
4.87,5.145
4.88,5.125
4.865,5.13
4.87,5.14
4.865,5.135
4.85,5.12
4.845,5.115
4.85,5.125
4.875,5.135
4.87,5.13
4.865,5.14
4.86,5.135
4.845,5.15
4.815,5.135
4.805,5.125
4.815,5.125
4.855,5.135
4.875,5.13
4.87,5.1
4.865,5.11
4.85,5.11
4.855,5.105
4.885,5.055
4.915,5.045
4.93,5.05
4.91,5.025
4.88,5.01
4.88,5.01
4.91,5.01
4.92,5.005
4.91,4.995
4.88,5.0
4.87,5.035
4.85,5.02
4.855,4.995
4.835,4.99
4.85,5.005
4.855,5.005
4.85,4.995
4.83,4.985
4.845,4.995
4.87,5.01
4.88,4.995
4.855,4.995
4.84,5.005
4.84,5.02
4.845,5.015
4.86,4.985
4.855,4.99
4.865,5.02
4.87,5.01
4.855,5.005
4.86,5.025
4.885,5.1
4.9,5.345
4.925,5.87
5.01,6.065
5.195,5.735
5.65,5.505
5.92,5.43
5.58,5.38
5.28,5.35
5.265,5.3
5.33,5.21
5.345,5.07
5.365,4.89
5.4,4.63
5.42,4.32
5.44,4.02
5.445,3.71
5.46,3.44
5.47,3.365
5.485,3.015
5.495,2.875
5.495,2.73
5.485,2.56
5.435,2.4
5.345,2.305
5.255,2.265
5.19,2.205
5.085,2.145
4.915,2.115
4.77,2.105
4.74,2.095
4.745,2.09
4.745,2.115
4.755,2.165
4.735,2.285
4.695,2.415
4.64,2.575
4.625,2.78
4.645,2.99
4.675,3.245
4.675,3.55
4.675,3.875
4.69,4.165
4.695,4.245
4.72,4.71
4.705,4.97
4.705,5.175
4.705,5.35
4.695,5.51
4.71,5.665
4.73,5.78
4.745,5.84
4.75,5.88
4.74,5.935
4.76,6.005
4.775,6.05
4.77,6.08
4.765,6.14
4.765,6.185
4.775,6.23
4.775,6.27
4.75,6.315
4.76,6.375
4.76,6.44
4.77,6.465
4.755,6.525
4.745,6.595
4.75,6.64
4.755,6.66
4.75,6.725
4.74,6.785
4.76,6.84
4.765,6.88
4.76,6.91
4.755,6.955
4.77,7.005
4.78,7.03
4.78,7.04
4.77,7.05
4.785,7.07
4.805,7.075
4.815,7.055
4.805,7.04
4.825,7.025
4.855,6.99
4.865,6.93
4.865,6.87
4.87,6.82
4.89,6.75
4.895,6.675
4.9,6.59
4.905,6.51
4.925,6.43
4.935,6.39
4.905,6.235
4.915,6.14
4.92,6.07
4.93,5.99
4.92,5.89
4.9,5.815
4.91,5.765
4.91,5.7
4.895,5.62
4.88,5.565
4.885,5.525
4.895,5.47
4.875,5.425
4.865,5.385
4.865,5.37
4.87,5.33
4.86,5.305
4.835,5.275
4.84,5.26
4.85,5.255
4.84,5.235
4.83,5.215
4.82,5.21
4.83,5.205
4.835,5.205
4.815,5.19
4.81,5.18
4.815,5.175
4.82,5.165
4.815,5.16
4.8,5.15
4.81,5.165
4.82,5.16
4.815,5.15
4.8,5.145
4.81,5.16
4.825,5.165
4.82,5.16
4.815,5.155
4.81,5.17
4.82,5.18
4.815,5.175
4.805,5.165
4.81,5.175
4.82,5.185
4.82,5.185
4.8,5.18
4.8,5.185
4.805,5.19
4.815,5.185
4.8,5.175
4.795,5.18
4.8,5.195
4.8,5.185
4.785,5.165
4.78,5.165
4.795,5.18
4.8,5.17
4.785,5.15
4.77,5.145
4.775,5.155
4.78,5.15
4.775,5.13
4.75,5.115
4.76,5.13
4.765,5.12
4.77,5.11
4.755,5.105
4.745,5.1
4.77,5.11
4.77,5.095
4.76,5.085
4.755,5.095
4.76,5.1
4.76,5.095
4.745,5.06
4.74,5.075
4.745,5.07
4.755,5.07
4.75,5.055
4.735,5.065
4.74,5.065
4.75,5.055
4.745,5.055
4.73,5.045
4.73,5.055
4.76,5.05
4.74,5.04
4.72,5.035
4.735,5.05
4.745,5.05
4.745,5.05
4.735,5.045
4.73,5.05
4.735,5.06
4.735,5.05
4.725,5.05
4.725,5.07
4.735,5.08
4.74,5.085
4.72,5.08
4.71,5.095
4.725,5.105
4.74,5.095
4.74,5.085
4.725,5.065
4.755,5.065
4.765,5.05
4.775,5.04
4.775,5.035
4.79,5.045
4.815,5.04
4.805,5.03
4.78,5.02
4.795,5.09
4.83,5.3
4.87,5.825
4.93,6.05
5.145,5.75
5.62,5.53
5.945,5.455
5.66,5.39
5.265,5.36
5.185,5.32
5.185,5.3
5.195,5.075
5.215,4.85
5.23,4.56
5.26,4.245
5.26,3.93
5.27,3.575
5.265,3.3
5.29,3.085
5.31,2.915
5.32,2.775
5.33,2.655
5.345,2.51
5.33,2.385
5.27,2.31
5.205,2.29
5.17,2.255
5.11,2.205
5.005,2.165
4.87,2.15
4.79,2.14
4.795,2.12
4.81,2.105
4.81,2.145
4.8,2.2
4.79,2.22
4.685,2.405
4.645,2.575
4.625,2.76
4.625,2.955
4.61,3.255
4.615,3.59
4.615,3.9
4.625,4.215
4.61,4.495
4.585,4.795
4.575,5.05
4.585,5.265
4.575,5.46
4.56,5.625
4.58,5.79
4.6,5.885
4.59,5.935
4.59,6.005
4.6,6.055
4.61,6.115
4.615,6.16
4.605,6.205
4.61,6.26
4.625,6.3
4.63,6.315
4.63,6.38
4.62,6.435
4.635,6.495
4.645,6.545
4.635,6.58
4.63,6.63
4.64,6.695
4.655,6.745
4.645,6.79
4.635,6.85
4.65,6.91
4.66,6.955
4.66,6.985
4.655,7.04
4.675,7.085
4.69,7.125
4.69,7.135
4.69,7.15
4.7,7.175
4.725,7.19
4.735,7.18
4.74,7.16
4.75,7.16
4.765,7.135
4.77,7.115
4.775,7.03
4.78,6.97
4.8,6.915
4.815,6.815
4.815,6.73
4.825,6.65
4.845,6.555
4.855,6.46
4.85,6.36
4.85,6.27
4.855,6.18
4.865,6.09
4.85,5.995
4.83,5.905
4.83,5.825
4.84,5.755
4.83,5.68
4.805,5.61
4.8,5.56
4.805,5.515
4.8,5.475
4.785,5.425
4.775,5.405
4.78,5.385
4.79,5.365
4.775,5.315
4.765,5.305
4.78,5.295
4.77,5.265
4.76,5.245
4.77,5.245
4.765,5.245
4.775,5.225
4.765,5.215
4.76,5.2
4.76,5.215
4.79,5.21
4.78,5.2
4.765,5.195
4.77,5.195
4.77,5.195
4.775,5.195
4.765,5.195
4.765,5.205
4.78,5.21
4.785,5.2
4.785,5.195
4.78,5.205
4.785,5.215
4.79,5.22
4.765,5.2
4.76,5.215
4.775,5.225
4.78,5.23
4.765,5.205
4.76,5.2
4.765,5.22
4.765,5.22
4.765,5.195
4.75,5.195
4.75,5.21
4.76,5.205
4.75,5.185
4.745,5.17
4.75,5.18
4.755,5.175
4.75,5.165
4.735,5.15
4.73,5.155
4.74,5.165
4.74,5.155
4.725,5.14
4.725,5.145
4.73,5.145
4.725,5.135
4.725,5.12
4.72,5.115
4.725,5.13
4.725,5.115
4.725,5.095
4.72,5.1
4.725,5.11
4.725,5.095
4.72,5.09
4.705,5.095
4.715,5.095
4.725,5.09
4.72,5.085
4.7,5.075
4.705,5.075
4.72,5.085
4.715,5.075
4.695,5.065
4.7,5.075
4.715,5.085
4.715,5.075
4.7,5.055
4.71,5.06
4.715,5.075
4.72,5.075
4.705,5.055
4.695,5.055
4.71,5.065
4.715,5.06
4.7,5.055
4.69,5.055
4.715,5.06
4.71,5.065
4.71,5.05
4.7,5.045
4.71,5.06
4.72,5.055
4.715,5.05
4.705,5.04
4.72,5.055
4.73,5.06
4.735,5.07
4.735,5.095
4.75,5.235
4.79,5.63
4.85,6.06
4.995,5.895
5.4,5.58
5.85,5.49
5.925,5.47
5.255,5.37
5.12,5.335
5.145,5.255
5.155,5.09
5.15,4.865
5.15,4.535
5.17,4.215
5.17,3.825
5.165,3.435
5.155,3.155
5.195,2.93
5.21,2.735
5.19,2.575
5.17,2.41
5.165,2.29
5.1,2.22
4.995,2.17
4.905,2.135
4.81,2.115
4.7,2.11
4.635,2.1
4.635,2.09
4.68,2.1
4.715,2.125
4.72,2.13
4.645,2.21
4.595,2.35
4.58,2.52
4.59,2.73
4.59,2.985
4.61,3.325
4.625,3.66
4.63,3.98
4.62,4.295
4.605,4.61
4.61,4.88
4.58,5.105
4.545,5.295
4.54,5.505
4.55,5.675
4.575,5.79
4.56,5.855
4.555,5.91
4.57,5.98
4.59,6.025
4.585,6.055
4.57,6.095
4.575,6.145
4.575,6.2
4.575,6.22
4.565,6.255
4.565,6.3
4.575,6.345
4.58,6.38
4.575,6.415
4.59,6.46
4.58,6.52
4.595,6.555
4.595,6.59
4.585,6.635
4.6,6.7
4.61,6.745
4.61,6.785
4.6,6.835
4.62,6.89
4.635,6.935
4.64,6.955
4.635,6.98
4.655,7.035
4.675,7.065
4.675,7.08
4.685,7.09
4.69,7.09
4.705,7.11
4.71,7.1
4.73,7.06
4.735,7.045
4.76,7.01
4.785,6.95
4.795,6.87
4.81,6.8
4.83,6.73
4.83,6.635
4.815,6.515
4.82,6.43
4.84,6.345
4.865,6.245
4.87,6.14
4.86,6.045
4.865,5.975
4.865,5.88
4.855,5.8
4.845,5.72
4.85,5.66
4.86,5.615
4.855,5.545
4.835,5.49
4.815,5.45
4.825,5.425
4.83,5.41
4.795,5.35
4.78,5.335
4.79,5.325
4.795,5.29
4.78,5.27
4.78,5.255
4.775,5.265
4.775,5.255
4.77,5.235
4.77,5.225
4.79,5.24
4.8,5.24
4.795,5.225
4.785,5.21
4.79,5.23
4.795,5.245
4.79,5.24
4.765,5.215
4.77,5.225
4.78,5.225
4.78,5.22
4.77,5.215
4.765,5.23
4.765,5.235
4.77,5.23
4.765,5.21
4.765,5.215
4.77,5.225
4.76,5.215
4.74,5.195
4.755,5.205
4.77,5.21
4.765,5.195
4.735,5.18
4.735,5.17
4.77,5.17
4.76,5.17
4.745,5.16
4.725,5.15
4.75,5.155
4.76,5.145
4.74,5.12
4.73,5.12
4.745,5.12
4.755,5.12
4.725,5.11
4.705,5.095
4.695,5.1
4.695,5.095
4.7,5.09
4.745,5.075
4.76,5.08
4.775,5.09
4.77,5.075
4.73,5.07
4.73,5.065
4.735,5.075
4.735,5.06
4.735,5.055
4.735,5.045
4.735,5.06
4.71,5.055
4.695,5.05
4.695,5.045
4.745,5.045
4.76,5.055
4.75,5.05
4.71,5.04
4.715,5.045
4.725,5.055
4.735,5.04
4.73,5.035
4.73,5.045
4.74,5.04
4.74,5.035
4.73,5.02
4.71,5.025
4.73,5.045
4.735,5.035
4.75,5.03
4.74,5.03
4.74,5.045
4.73,5.035
4.73,5.025
4.725,5.025
4.73,5.035
4.745,5.04
4.755,5.03
4.745,5.025
4.765,5.055
4.79,5.085
4.815,5.205
4.835,5.62
4.885,6.035
5.04,5.85
5.46,5.545
5.83,5.44
5.605,5.385
5.265,5.35
5.195,5.325
5.21,5.125
5.24,4.945
5.26,4.685
5.275,4.355
5.26,4.01
5.25,3.65
5.235,3.32
5.22,3.045
5.23,2.795
5.22,2.65
5.21,2.54
5.185,2.4
5.135,2.27
5.055,2.2
4.97,2.175
4.895,2.155
4.74,2.12
4.58,2.11
4.515,2.11
4.515,2.115
4.545,2.105
4.555,2.13
4.54,2.19
4.55,2.3
4.555,2.335
4.545,2.63
4.565,2.875
4.62,3.155
4.65,3.485
4.655,3.8
4.675,4.12
4.72,4.44
4.735,4.715
4.7,4.95
4.665,5.175
4.69,5.37
4.715,5.57
4.73,5.7
4.71,5.805
4.715,5.87
4.725,5.915
4.715,5.95
4.71,5.985
4.73,6.04
4.74,6.085
4.73,6.095
4.71,6.13
4.71,6.165
4.73,6.195
4.74,6.2
4.715,6.24
4.7,6.28
4.71,6.32
4.72,6.345
4.71,6.37
4.69,6.41
4.675,6.455
4.695,6.495
4.695,6.515
4.69,6.565
4.7,6.625
4.705,6.655
4.71,6.695
4.71,6.73
4.735,6.79
4.75,6.83
4.755,6.85
4.75,6.89
4.785,6.925
4.825,6.935
4.825,6.945
4.81,6.945
4.805,6.95
4.835,6.945
4.845,6.94
4.88,6.88
4.89,6.84
4.92,6.79
4.945,6.725
4.96,6.64
4.975,6.56
5.0,6.48
5.0,6.38
4.99,6.28
4.97,6.185
5.0,6.105
5.015,6.005
5.0,5.92
4.985,5.835
4.98,5.775
4.99,5.705
4.975,5.635
4.945,5.58
4.945,5.535
4.945,5.475
4.94,5.425
4.92,5.38
4.92,5.375
4.92,5.35
4.925,5.335
4.9,5.295
4.89,5.29
4.89,5.28
4.885,5.275
4.865,5.26
4.86,5.26
4.87,5.265
4.885,5.255
4.87,5.24
4.86,5.24
4.87,5.26
4.87,5.265
4.875,5.245
4.85,5.235
4.855,5.25
4.86,5.25
4.85,5.24
4.83,5.24
4.84,5.255
4.855,5.245
4.86,5.24
4.845,5.23
4.84,5.235
4.855,5.25
4.87,5.25
4.84,5.225
4.83,5.22
4.835,5.23
4.83,5.215
4.825,5.21
4.815,5.195
4.82,5.205
4.825,5.2
4.82,5.18
4.8,5.17
4.815,5.175
4.815,5.165
4.805,5.15
4.805,5.135
4.805,5.155
4.8,5.14
4.805,5.13
4.785,5.12
4.795,5.125
4.79,5.12
4.78,5.13
4.78,5.1
4.78,5.115
4.785,5.11
4.79,5.1
4.77,5.085
4.775,5.08
4.78,5.1
4.77,5.09
4.76,5.075
4.76,5.075
4.775,5.085
4.77,5.075
4.765,5.07
4.76,5.06
4.77,5.075
4.775,5.075
4.765,5.065
4.76,5.055
4.765,5.07
4.76,5.07
4.765,5.07
4.755,5.065
4.765,5.065
4.77,5.07
4.775,5.06
4.76,5.055
4.76,5.06
4.77,5.07
4.765,5.065
4.755,5.05
4.755,5.05
4.76,5.08
4.775,5.065
4.76,5.05
4.755,5.055
4.765,5.065
4.77,5.055
4.765,5.05
4.76,5.04
4.77,5.06
4.765,5.055
4.77,5.05
4.75,5.045
4.765,5.07
4.78,5.065
4.775,5.075
4.76,5.08
4.79,5.18
4.82,5.44
4.855,5.94
4.925,6.045
5.155,5.72
5.665,5.54
5.83,5.515
5.465,5.425
5.18,5.395
5.19,5.345
5.215,5.24
5.205,5.075
5.235,4.85
5.255,4.585
5.285,4.265
5.29,3.92
5.27,3.58
5.27,3.31
5.265,3.065
5.27,2.855
5.245,2.7
5.23,2.585
5.215,2.44
5.16,2.3
5.065,2.22
4.995,2.2
4.95,2.165
4.85,2.135
4.71,2.115
4.63,2.11
4.64,2.12
4.655,2.115
4.685,2.12
4.675,2.15
4.66,2.23
4.645,2.325
4.615,2.475
4.61,2.67
4.635,2.925
4.665,3.21
4.675,3.51
4.65,3.845
4.66,4.15
4.685,4.47
4.665,4.745
4.635,5.005
4.635,5.23
4.635,5.44
4.645,5.61
4.645,5.75
4.675,5.87
4.675,5.95
4.68,5.995
4.675,6.04
4.68,6.105
4.685,6.155
4.69,6.17
4.675,6.22
4.67,6.27
4.675,6.315
4.7,6.33
4.695,6.36
4.69,6.39
4.7,6.425
4.71,6.44
4.705,6.455
4.695,6.485
4.71,6.535
4.74,6.555
4.73,6.58
4.71,6.615
4.715,6.66
4.725,6.705
4.71,6.73
4.7,6.78
4.705,6.845
4.71,6.895
4.695,6.925
4.685,6.955
4.67,6.995
4.69,7.025
4.695,7.035
4.705,7.045
4.7,7.055
4.72,7.065
4.735,7.045
4.73,7.015
4.745,6.985
4.765,6.96
4.785,6.89
4.795,6.81
4.795,6.745
4.82,6.695
4.84,6.6
4.855,6.495
4.87,6.4
4.875,6.315
4.9,6.225
4.89,6.12
4.875,6.02
4.9,5.955
4.9,5.875
4.905,5.79
4.895,5.725
4.885,5.675
4.895,5.62
4.895,5.6
4.875,5.505
4.865,5.47
4.865,5.45
4.87,5.4
4.85,5.385
4.845,5.36
4.85,5.36
4.85,5.335
4.83,5.32
4.835,5.305
4.835,5.32
4.83,5.3
4.825,5.3
4.815,5.29
4.82,5.295
4.835,5.305
4.83,5.295
4.825,5.29
4.82,5.305
4.83,5.3
4.81,5.29
4.81,5.28
4.82,5.295
4.815,5.31
4.82,5.305
4.805,5.285
4.815,5.29
4.81,5.295
4.815,5.295
4.815,5.285
4.8,5.275
4.815,5.285
4.81,5.275
4.795,5.265
4.795,5.25
4.8,5.265
4.805,5.255
4.8,5.235
4.805,5.24
4.805,5.235
4.805,5.23
4.805,5.215
4.785,5.205
4.79,5.205
4.795,5.21
4.79,5.19
4.785,5.175
4.79,5.17
4.79,5.175
4.795,5.17
4.785,5.14
4.78,5.14
4.79,5.15
4.785,5.13
4.785,5.115
4.78,5.12
4.79,5.15
4.785,5.12
4.785,5.115
4.775,5.11
4.78,5.115
4.785,5.1
4.78,5.09
4.765,5.1
4.78,5.095
4.785,5.095
4.785,5.085
4.78,5.075
4.775,5.085
4.78,5.095
4.79,5.085
4.77,5.075
4.78,5.085
4.78,5.09
4.775,5.095
4.775,5.055
4.77,5.065
4.78,5.08
4.78,5.065
4.77,5.055
4.77,5.07
4.79,5.075
4.79,5.07
4.785,5.065
4.77,5.05
4.785,5.065
4.795,5.075
4.785,5.055
4.78,5.045
4.78,5.065
4.79,5.075
4.795,5.055
4.78,5.045
4.785,5.06
4.8,5.06
4.8,5.05
4.78,5.05
4.785,5.065
4.805,5.07
4.81,5.075
4.795,5.06
4.805,5.065
4.815,5.085
4.83,5.115
4.83,5.275
4.86,5.74
4.92,6.04
5.08,5.76
5.46,5.525
5.81,5.435
5.68,5.375
5.325,5.285
5.205,5.175
5.205,5.02
5.22,4.85
5.225,4.625
5.225,4.345
5.23,4.07
5.24,3.89
5.25,3.72
5.235,3.52
5.21,3.29
5.225,3.02
5.22,2.8
5.215,2.73
5.155,2.49
5.115,2.39
5.055,2.305
4.97,2.235
4.89,2.195
4.825,2.175
4.74,2.15
4.625,2.15
4.545,2.14
4.55,2.14
4.615,2.165
4.665,2.185
4.68,2.215
4.67,2.295
4.67,2.435
4.665,2.605
4.68,2.825
4.68,3.09
4.725,3.415
4.78,3.74
4.79,4.065
4.765,4.35
4.745,4.63
4.76,4.89
4.76,4.965
4.735,5.355
4.73,5.57
4.74,5.735
4.755,5.815
4.745,5.885
4.76,5.935
4.77,6.015
4.775,6.045
4.77,6.075
4.765,6.12
4.78,6.165
4.765,6.19
4.77,6.215
4.77,6.245
4.77,6.29
4.775,6.31
4.77,6.335
4.765,6.365
4.765,6.405
4.765,6.44
4.775,6.475
4.755,6.495
4.77,6.55
4.78,6.595
4.785,6.61
4.78,6.665
4.775,6.715
4.78,6.76
4.795,6.79
4.79,6.825
4.795,6.87
4.81,6.92
4.825,6.955
4.815,6.98
4.805,7.025
4.825,7.07
4.835,7.095
4.84,7.095
4.83,7.09
4.855,7.105
4.9,7.09
4.905,7.065
4.915,7.025
4.925,6.985
4.95,6.925
4.965,6.845
4.96,6.775
4.98,6.695
5.005,6.605
5.005,6.575
5.0,6.405
5.005,6.32
5.01,6.225
5.015,6.12
5.0,6.045
4.995,5.98
5.0,5.925
4.97,5.84
4.94,5.76
4.915,5.705
4.92,5.655
4.935,5.595
4.92,5.535
4.9,5.49
4.9,5.46
4.9,5.42
4.88,5.38
4.865,5.35
4.865,5.34
4.875,5.325
4.87,5.3
4.85,5.28
4.855,5.27
4.85,5.27
4.845,5.26
4.84,5.24
4.84,5.25
4.84,5.26
4.845,5.24
4.835,5.245
4.83,5.24
4.84,5.245
4.845,5.245
4.845,5.245
4.83,5.24
4.84,5.255
4.845,5.245
4.83,5.24
4.81,5.245
4.83,5.25
4.835,5.24
4.82,5.235
4.805,5.225
4.81,5.24
4.81,5.245
4.805,5.235
4.81,5.225
4.82,5.235
4.835,5.235
4.83,5.23
4.81,5.2
4.8,5.205
4.815,5.215
4.805,5.205
4.8,5.175
4.8,5.17
4.8,5.195
4.79,5.175
4.775,5.16
4.77,5.16
4.77,5.165
4.795,5.145
4.79,5.14
4.75,5.135
4.775,5.14
4.79,5.14
4.78,5.12
4.77,5.115
4.78,5.115
4.775,5.12
4.785,5.105
4.775,5.1
4.78,5.095
4.79,5.105
4.795,5.1
4.775,5.09
4.77,5.08
4.795,5.09
4.8,5.09
4.79,5.065
4.795,5.085
4.8,5.1
4.79,5.08
4.785,5.07
4.775,5.065
4.79,5.075
4.81,5.08
4.8,5.06
4.79,5.065
4.8,5.08
4.815,5.07
4.805,5.06
4.805,5.07
4.8,5.07
4.81,5.065
4.815,5.055
4.8,5.045
4.8,5.065
4.81,5.06
4.815,5.06
4.795,5.03
4.795,5.045
4.815,5.055
4.815,5.045
4.8,5.035
4.795,5.05
4.805,5.06
4.82,5.05
4.815,5.035
4.805,5.035
4.82,5.04
4.845,5.045
4.825,5.035
4.81,5.025
4.82,5.045
4.825,5.04
4.83,5.035
4.83,5.025
4.845,5.05
4.855,5.05
4.85,5.055
4.855,5.05
4.855,5.075
4.865,5.155
4.875,5.195
4.915,5.87
5.0,5.9
5.27,5.62
5.72,5.48
5.84,5.415
5.495,5.345
5.26,5.28
5.24,5.165
5.255,4.995
5.255,4.78
5.275,4.56
5.285,4.24
5.29,3.955
5.28,3.695
5.29,3.48
5.265,3.265
5.25,3.01
5.24,2.745
5.26,2.585
5.255,2.455
5.21,2.345
5.125,2.245
5.03,2.2
4.935,2.185
4.905,2.175
4.74,2.13
4.64,2.135
4.57,2.145
4.555,2.125
4.585,2.125
4.62,2.15
4.64,2.2
4.64,2.26
4.635,2.355
4.635,2.535
4.665,2.735
4.705,2.97
4.725,3.24
4.755,3.57
4.79,3.89
4.795,4.175
4.77,4.44
4.76,4.7
4.77,4.96
4.795,5.17
4.785,5.37
4.785,5.57
4.795,5.72
4.81,5.82
4.815,5.845
4.795,5.925
4.805,5.975
4.835,6.03
4.84,6.065
4.835,6.095
4.825,6.14
4.8,6.185
4.82,6.205
4.825,6.21
4.835,6.26
4.85,6.3
4.855,6.32
4.865,6.345
4.855,6.385
4.85,6.435
4.83,6.475
4.815,6.505
4.835,6.535
4.865,6.58
4.895,6.63
4.885,6.665
4.87,6.695
4.88,6.745
4.89,6.785
4.895,6.8
4.885,6.84
4.89,6.885
4.895,6.91
4.92,6.94
4.945,6.95
4.965,6.975
4.985,7.0
4.98,7.0
4.975,6.98
4.965,6.965
4.98,6.955
4.995,6.92
5.005,6.87
5.02,6.815
5.045,6.775
5.05,6.72
5.04,6.645
5.03,6.57
5.045,6.495
5.07,6.405
5.1,6.3
5.12,6.185
5.13,6.115
5.12,6.035
5.12,5.995
5.085,5.835
5.085,5.75
5.1,5.68
5.085,5.58
5.065,5.505
5.065,5.455
5.05,5.43
5.03,5.385
4.995,5.365
4.965,5.335
4.98,5.325
4.98,5.3
4.98,5.265
4.97,5.25
4.95,5.25
4.93,5.24
4.91,5.215
4.905,5.2
4.95,5.215
4.98,5.215
4.965,5.195
4.925,5.19
4.925,5.195
4.935,5.205
4.935,5.2
4.925,5.19
4.925,5.19
4.945,5.2
4.935,5.2
4.905,5.185
4.89,5.2
4.91,5.215
4.915,5.195
4.915,5.185
4.915,5.19
4.895,5.205
4.885,5.195
4.88,5.185
4.87,5.185
4.905,5.19
4.935,5.18
4.915,5.165
4.89,5.165
4.875,5.17
4.875,5.16
4.885,5.15
4.9,5.135
4.91,5.15
4.905,5.15
4.905,5.14
4.89,5.115
4.87,5.105
4.89,5.115
4.895,5.095
4.885,5.095
4.88,5.09
4.875,5.09
4.88,5.085
4.88,5.075
4.875,5.07
4.87,5.08
4.865,5.075
4.86,5.055
4.85,5.06
4.86,5.065
4.875,5.065
4.88,5.055
4.855,5.045
4.865,5.06
4.86,5.055
4.865,5.05
4.86,5.035
4.85,5.04
4.86,5.05
4.865,5.04
4.865,5.04
4.855,5.035
4.86,5.06
4.86,5.04
4.865,5.015
4.86,5.03
4.865,5.04
4.855,5.035
4.85,5.025
4.84,5.025
4.85,5.035
4.86,5.04
4.86,5.025
4.845,5.02
4.855,5.025
4.87,5.025
4.87,5.025
4.86,5.015
4.86,5.02
4.865,5.035
4.845,5.02
4.855,5.015
4.87,5.02
4.875,5.025
4.87,5.03
4.865,5.0
4.865,5.01
4.875,5.035
4.88,5.02
4.87,5.015
4.86,5.02
4.875,5.035
4.875,5.03
4.875,5.02
4.875,5.05
4.9,5.105
4.915,5.295
4.95,5.78
5.005,5.96
5.235,5.665
5.715,5.47
5.875,5.425
5.51,5.36
5.295,5.325
5.29,5.255
5.32,5.115
5.315,4.905
5.335,4.635
5.36,4.335
5.37,4.23
5.35,3.67
5.32,3.38
5.32,3.145
5.32,2.92
5.305,2.755
5.28,2.63
5.255,2.49
5.205,2.35
5.11,2.25
5.0,2.215
4.935,2.19
4.865,2.155
4.75,2.12
4.625,2.11
4.595,2.13
4.61,2.13
4.645,2.13
4.645,2.145
4.635,2.205
4.625,2.28
4.6,2.39
4.605,2.555
4.64,2.76
4.665,3.015
4.68,3.105
4.71,3.655
4.715,3.98
4.72,4.3
4.725,4.595
4.715,4.845
4.695,5.075
4.695,5.285
4.695,5.46
4.705,5.61
4.715,5.72
4.725,5.805
4.73,5.84
4.735,5.885
4.745,5.93
4.745,5.98
4.74,6.01
4.745,6.04
4.74,6.075
4.74,6.115
4.745,6.145
4.745,6.17
4.73,6.2
4.735,6.245
4.75,6.295
4.745,6.31
4.73,6.36
4.72,6.41
4.74,6.465
4.745,6.495
4.745,6.54
4.73,6.59
4.745,6.645
4.745,6.685
4.74,6.72
4.74,6.77
4.755,6.825
4.76,6.855
4.76,6.885
4.775,6.92
4.79,6.955
4.8,6.98
4.81,6.975
4.805,6.98
4.82,7.005
4.85,7.01
4.84,6.985
4.855,6.96
4.875,6.95
4.9,6.905
4.91,6.885
4.93,6.78
4.94,6.735
4.965,6.67
4.985,6.57
4.99,6.485
4.99,6.385
5.005,6.305
5.015,6.195
5.02,6.075
5.025,5.985
5.05,5.91
5.055,5.82
5.05,5.715
5.025,5.625
5.01,5.575
5.02,5.505
5.0,5.44
4.985,5.4
4.98,5.38
4.975,5.355
4.955,5.325
4.93,5.29
4.92,5.275
4.915,5.28
4.91,5.265
4.9,5.235
4.89,5.22
4.89,5.24
4.895,5.22
4.885,5.21
4.875,5.21
4.885,5.215
4.89,5.205
4.88,5.19
4.86,5.195
4.865,5.215
4.875,5.21
4.865,5.195
4.85,5.19
4.855,5.205
4.87,5.215
4.86,5.205
4.85,5.2
4.845,5.215
4.86,5.215
4.85,5.195
4.835,5.195
4.845,5.21
4.845,5.21
4.845,5.2
4.835,5.175
4.835,5.185
4.835,5.18
4.84,5.175
4.82,5.16
4.815,5.15
4.82,5.16
4.815,5.155
4.815,5.14
4.8,5.125
4.8,5.13
4.815,5.125
4.79,5.105
4.775,5.105
4.795,5.11
4.81,5.1
4.8,5.09
4.785,5.08
4.795,5.08
4.8,5.09
4.79,5.08
4.785,5.07
4.785,5.075
4.785,5.07
4.785,5.065
4.795,5.05
4.785,5.055
4.79,5.055
4.79,5.05
4.78,5.04
4.785,5.05
4.785,5.055
4.78,5.05
4.775,5.045
4.775,5.045
4.785,5.05
4.8,5.05
4.785,5.035
4.775,5.035
4.785,5.04
4.795,5.03
4.78,5.03
4.785,5.025
4.785,5.03
4.795,5.04
4.79,5.035
4.795,5.035
4.795,5.03
4.805,5.04
4.805,5.035
4.805,5.005
4.795,5.02
4.81,5.03
4.805,5.02
4.795,5.015
4.8,5.02
4.8,5.02
4.815,5.015
4.82,5.02
4.81,5.015
4.82,5.025
4.835,5.025
4.83,5.03
4.83,5.055
4.85,5.17
4.895,5.58
4.95,5.945
5.085,5.73
5.525,5.485
5.93,5.42
5.685,5.365
5.315,5.305
5.225,5.26
5.275,5.15
5.29,5.095
5.305,4.685
5.325,4.36
5.345,4.02
5.36,3.64
5.35,3.31
5.335,3.05
5.365,2.85
5.375,2.68
5.36,2.545
5.335,2.395
5.32,2.285
5.235,2.195
5.115,2.155
5.03,2.125
4.96,2.105
4.835,2.095
4.74,2.085
4.735,2.08
4.78,2.1
4.805,2.12
4.79,2.14
4.76,2.205
4.725,2.31
4.705,2.465
4.7,2.52
4.69,2.9
4.7,3.235
4.725,3.57
4.72,3.89
4.72,4.2
4.71,4.525
4.71,4.81
4.705,5.045
4.69,5.24
4.67,5.47
4.69,5.655
4.715,5.77
4.715,5.83
4.695,5.89
4.72,5.96
4.73,6.01
4.725,6.045
4.72,6.09
4.735,6.13
4.735,6.18
4.725,6.215
4.725,6.245
4.73,6.295
4.74,6.35
4.735,6.365
4.725,6.42
4.72,6.47
4.73,6.525
4.735,6.565
4.72,6.605
4.72,6.66
4.73,6.725
4.73,6.75
4.73,6.78
4.725,6.835
4.745,6.885
4.755,6.925
4.755,6.955
4.765,6.99
4.77,7.035
4.795,7.055
4.8,7.06
4.795,7.075
4.8,7.095
4.83,7.1
4.84,7.075
4.85,7.05
4.87,7.03
4.885,7.0
4.9,6.98
4.9,6.86
4.92,6.795
4.935,6.72
4.955,6.625
4.955,6.515
4.96,6.435
4.98,6.35
4.985,6.25
4.99,6.14
4.975,6.055
4.985,5.975
4.98,5.895
4.98,5.805
4.97,5.725
4.955,5.67
4.96,5.605
4.96,5.54
4.935,5.49
4.925,5.45
4.935,5.405
4.93,5.355
4.925,5.325
4.92,5.315
4.935,5.285
4.925,5.28
4.895,5.23
4.9,5.22
4.91,5.225
4.91,5.2
4.895,5.185
4.89,5.19
4.905,5.2
4.905,5.18
4.89,5.17
4.88,5.17
4.885,5.185
4.895,5.185
4.885,5.18
4.88,5.175
4.88,5.2
4.88,5.21
4.875,5.2
4.865,5.2
4.875,5.225
4.885,5.235
4.87,5.225
4.855,5.22
4.86,5.225
4.88,5.245
4.885,5.24
4.885,5.2
4.895,5.195
4.895,5.205
4.89,5.17
4.88,5.14
4.89,5.13
4.91,5.125
4.91,5.1
4.885,5.08
4.88,5.08
4.885,5.085
4.88,5.075
4.865,5.065
4.845,5.07
4.85,5.08
4.85,5.075
4.84,5.065
4.84,5.055
4.84,5.065
4.855,5.055
4.83,5.045
4.82,5.03
4.825,5.04
4.82,5.04
4.82,5.03
4.805,5.02
4.8,5.02
4.815,5.02
4.815,5.005
4.81,5.0
4.8,4.995
4.81,5.005
4.82,4.995
4.81,4.985
4.8,4.985
4.8,4.985
4.81,4.99
4.8,4.975
4.79,4.975
4.805,4.99
4.8,4.985
4.79,4.965
4.795,4.96
4.8,4.975
4.81,4.98
4.805,4.97
4.795,4.96
4.78,4.975
4.795,4.98
4.8,4.98
4.81,4.96
4.825,4.965
4.83,4.98
4.83,4.975
4.82,4.965
4.825,4.97
4.825,4.97
4.825,4.975
4.82,4.955
4.825,4.965
4.845,4.985
4.84,4.975
4.83,4.965
4.825,4.97
4.84,4.975
4.835,4.975
4.83,4.98
4.83,4.985
4.86,5.015
4.885,5.09
4.905,5.405
4.94,5.855
5.01,5.8
5.3,5.51
5.435,5.44
5.75,5.335
5.395,5.3
5.26,5.24
5.265,5.14
5.275,4.965
5.265,4.72
5.3,4.43
5.315,4.065
5.32,3.705
5.29,3.35
5.27,3.07
5.255,2.84
5.26,2.655
5.28,2.545
5.285,2.49
5.265,2.395
5.25,2.255
5.185,2.175
5.09,2.16
5.01,2.135
4.945,2.095
4.815,2.075
4.72,2.06
4.715,2.08
4.735,2.075
4.805,2.08
4.805,2.125
4.785,2.185
4.755,2.275
4.725,2.395
4.675,2.57
4.665,2.76
4.695,2.96
4.7,3.205
4.705,3.52
4.73,3.835
4.745,4.145
4.74,4.435
4.715,4.72
4.71,4.975
4.71,5.185
4.69,5.365
4.69,5.54
4.725,5.69
4.735,5.785
4.74,5.835
4.735,5.895
4.745,5.965
4.765,6.025
4.775,6.04
4.75,6.115
4.76,6.18
4.76,6.235
4.765,6.275
4.775,6.32
4.77,6.375
4.795,6.445
4.79,6.495
4.775,6.54
4.77,6.6
4.8,6.68
4.825,6.725
4.83,6.765
4.815,6.83
4.81,6.885
4.84,6.935
4.85,6.97
4.825,7.005
4.835,7.05
4.87,7.085
4.885,7.095
4.87,7.11
4.87,7.13
4.88,7.135
4.88,7.13
4.905,7.09
4.93,7.075
4.955,7.045
4.995,6.98
5.0,6.915
5.0,6.835
4.99,6.77
4.99,6.685
5.0,6.58
5.015,6.495
5.045,6.425
5.03,6.325
5.005,6.22
4.995,6.115
5.03,6.05
5.035,5.96
5.015,5.87
5.01,5.8
5.03,5.74
5.05,5.68
5.025,5.605
4.995,5.535
4.98,5.5
4.98,5.46
4.975,5.44
4.97,5.37
4.96,5.34
4.97,5.32
4.94,5.29
4.925,5.25
4.945,5.23
4.965,5.245
4.97,5.21
4.945,5.19
4.94,5.17
4.96,5.175
4.95,5.175
4.925,5.145
4.915,5.155
4.945,5.15
4.97,5.15
4.975,5.135
4.945,5.135
4.93,5.15
4.935,5.145
4.935,5.135
4.935,5.125
4.935,5.135
4.95,5.14
4.95,5.135
4.94,5.125
4.94,5.135
4.935,5.14
4.925,5.145
4.925,5.12
4.93,5.14
4.935,5.15
4.925,5.135
4.91,5.13
4.905,5.135
4.92,5.145
4.925,5.145
4.925,5.125
4.905,5.13
4.92,5.135
4.925,5.13
4.905,5.12
4.9,5.125
4.905,5.15
4.91,5.16
4.91,5.145
4.89,5.15
4.89,5.14
4.885,5.15
4.885,5.145
4.9,5.125
4.9,5.14
4.915,5.145
4.905,5.12
4.91,5.095
4.91,5.085
4.93,5.065
4.93,5.055
4.93,5.035
4.925,5.035
4.935,5.025
4.93,5.015
4.915,4.99
4.91,4.975
4.92,5.0
4.925,5.01
4.9,5.01
4.89,4.995
4.875,5.0
4.87,5.005
4.855,4.995
4.84,4.99
4.85,5.0
4.865,5.0
4.865,5.005
4.87,4.99
4.86,5.0
4.855,5.01
4.855,4.99
4.85,4.975
4.84,4.985
4.84,4.99
4.86,4.985
4.845,4.975
4.835,4.975
4.845,4.99
4.84,4.985
4.835,4.98
4.82,4.97
4.835,4.99
4.835,4.99
4.84,4.985
4.83,4.98
4.845,5.01
4.85,5.035
4.865,5.04
4.86,5.23
4.9,5.685
4.965,5.83
4.995,5.79
5.56,5.42
5.735,5.385
5.445,5.365
5.23,5.325
5.235,5.27
5.27,5.175
5.31,5.01
5.335,4.755
5.36,4.455
5.395,4.14
5.415,3.84
5.42,3.52
5.43,3.245
5.445,3.045
5.48,2.9
5.49,2.75
5.47,2.58
5.435,2.41
5.37,2.33
5.285,2.27
5.19,2.2
5.12,2.165
4.995,2.135
4.86,2.125
4.83,2.12
4.795,2.11
4.825,2.12
4.835,2.16
4.82,2.225
4.77,2.33
4.73,2.48
4.695,2.68
4.7,2.86
4.7,3.105
4.69,3.425
4.69,3.765
4.685,4.065
4.69,4.37
4.675,4.675
4.68,4.95
4.665,5.18
4.66,5.35
4.635,5.53
4.66,5.695
4.68,5.79
4.685,5.855
4.68,5.91
4.695,5.965
4.695,6.015
4.695,6.035
4.69,6.09
4.69,6.155
4.71,6.22
4.715,6.25
4.695,6.295
4.69,6.355
4.69,6.415
4.695,6.46
4.69,6.505
4.67,6.565
4.67,6.625
4.685,6.675
4.67,6.725
4.66,6.78
4.68,6.845
4.69,6.89
4.69,6.935
4.695,6.97
4.705,7.02
4.72,7.06
4.73,7.07
4.725,7.085
4.745,7.115
4.765,7.12
4.775,7.115
4.775,7.075
4.79,7.065
4.81,7.025
4.83,6.98
4.835,6.91
4.84,6.855
4.87,6.8
4.885,6.705
4.895,6.61
4.895,6.515
4.91,6.435
4.93,6.34
4.93,6.245
4.91,6.14
4.92,6.055
4.935,5.975
4.925,5.885
4.91,5.79
4.91,5.74
4.915,5.665
4.915,5.59
4.895,5.53
4.895,5.49
4.905,5.45
4.9,5.43
4.875,5.37
4.87,5.345
4.875,5.315
4.87,5.28
4.86,5.255
4.855,5.235
4.86,5.235
4.86,5.21
4.85,5.19
4.83,5.175
4.845,5.18
4.85,5.18
4.84,5.16
4.84,5.155
4.84,5.16
4.85,5.16
4.84,5.15
4.825,5.14
4.84,5.145
4.85,5.15
4.85,5.145
4.835,5.145
4.83,5.16
4.85,5.155
4.86,5.155
4.84,5.15
4.84,5.15
4.86,5.17
4.855,5.165
4.845,5.155
4.83,5.16
4.85,5.18
4.855,5.165
4.845,5.16
4.83,5.16
4.84,5.17
4.84,5.16
4.835,5.145
4.81,5.155
4.82,5.155
4.835,5.14
4.82,5.125
4.805,5.125
4.825,5.13
4.83,5.12
4.815,5.11
4.805,5.1
4.805,5.1
4.825,5.1
4.825,5.095
4.795,5.075
4.8,5.07
4.805,5.085
4.795,5.07
4.795,5.055
4.78,5.06
4.8,5.075
4.79,5.065
4.775,5.045
4.77,5.035
4.78,5.055
4.8,5.05
4.785,5.03
4.78,5.03
4.785,5.04
4.795,5.04
4.79,5.02
4.775,5.015
4.775,5.035
4.785,5.045
4.785,5.05
4.77,5.045
4.765,5.06
4.775,5.07
4.77,5.075
4.765,5.07
4.76,5.08
4.77,5.085
4.77,5.08
4.775,5.06
4.79,5.06
4.81,5.065
4.815,5.05
4.815,5.02
4.805,5.01
4.83,5.015
4.845,4.995
4.85,4.98
4.83,4.96
4.835,4.975
4.855,4.965
4.85,4.98
4.845,5.04
4.86,5.275
4.89,5.78
4.92,5.99
5.045,5.665
5.49,5.455
5.815,5.4
5.83,5.38
5.25,5.275
5.185,5.225
5.24,5.105
5.26,4.9
5.265,4.615
5.285,4.28
5.32,3.945
5.325,3.59
5.32,3.29
5.33,3.11
5.385,3.0
5.42,2.885
5.415,2.72
5.43,2.575
5.44,2.46
5.39,2.375
5.32,2.305
5.255,2.245
5.2,2.205
5.09,2.17
4.965,2.15
4.895,2.115
4.91,2.11
4.935,2.13
4.935,2.14
4.865,2.205
4.8,2.325
4.75,2.47
4.71,2.62
4.69,2.815
4.68,3.095
4.695,3.415
4.675,3.75
4.665,4.065
4.66,4.39
4.66,4.71
4.64,4.97
4.61,5.185
4.585,5.39
4.61,5.585
4.625,5.755
4.63,5.825
4.62,5.9
4.635,5.975
4.645,6.025
4.65,6.065
4.645,6.12
4.655,6.175
4.66,6.23
4.655,6.245
4.65,6.32
4.66,6.375
4.67,6.43
4.67,6.475
4.67,6.525
4.67,6.585
4.69,6.66
4.69,6.715
4.68,6.75
4.68,6.815
4.69,6.875
4.705,6.92
4.695,6.96
4.695,7.01
4.715,7.06
4.725,7.095
4.73,7.11
4.73,7.13
4.74,7.16
4.765,7.17
4.775,7.165
4.775,7.145
4.795,7.13
4.815,7.11
4.81,7.09
4.82,7.0
4.83,6.94
4.84,6.88
4.85,6.795
4.86,6.705
4.855,6.625
4.875,6.53
4.875,6.425
4.87,6.325
4.86,6.235
4.87,6.155
4.88,6.065
4.86,5.965
4.85,5.865
4.855,5.815
4.87,5.74
4.85,5.65
4.84,5.59
4.845,5.545
4.845,5.495
4.83,5.445
4.82,5.4
4.825,5.37
4.825,5.35
4.82,5.33
4.8,5.285
4.795,5.275
4.795,5.26
4.8,5.24
4.805,5.21
4.795,5.21
4.805,5.2
4.81,5.18
4.79,5.175
4.79,5.165
4.8,5.175
4.795,5.16
4.785,5.155
4.775,5.15
4.795,5.15
4.81,5.15
4.8,5.14
4.79,5.135
4.8,5.15
4.805,5.155
4.8,5.145
4.78,5.135
4.78,5.145
4.8,5.155
4.8,5.15
4.79,5.135
4.8,5.16
4.805,5.155
4.785,5.16
4.765,5.145
4.765,5.16
4.805,5.17
4.795,5.165
4.785,5.155
4.765,5.165
4.77,5.16
4.78,5.165
4.78,5.145
4.775,5.14
4.78,5.15
4.77,5.145
4.75,5.12
4.74,5.115
4.755,5.13
4.77,5.135
4.77,5.115
4.75,5.1
4.765,5.105
4.765,5.105
4.76,5.11
4.735,5.085
4.735,5.085
4.75,5.09
4.75,5.08
4.735,5.065
4.745,5.07
4.75,5.085
4.745,5.08
4.735,5.055
4.72,5.06
4.73,5.06
4.735,5.06
4.74,5.04
4.73,5.04
4.74,5.045
4.745,5.04
4.735,5.025
4.72,5.02
4.745,5.04
4.75,5.04
4.725,5.03
4.715,5.02
4.735,5.03
4.74,5.035
4.75,5.03
4.735,5.025
4.73,5.025
4.74,5.02
4.745,5.02
4.725,5.005
4.745,5.015
4.755,5.035
4.745,5.025
4.725,5.02
4.72,5.015
4.735,5.02
4.76,5.02
4.745,5.005
4.73,5.015
4.745,5.025
4.76,5.015
4.75,5.005
4.735,5.005
4.73,5.015
4.73,5.025
4.75,5.005
4.74,5.025
4.77,5.045
4.78,5.105
4.795,5.13
4.825,5.755
4.87,6.12
4.98,5.855
5.345,5.545
5.755,5.445
5.645,5.39
5.275,5.315
5.17,5.2
5.165,5.03
5.165,4.805
5.155,4.565
5.175,4.255
5.2,3.945
5.225,3.685
5.215,3.465
5.19,3.25
5.175,2.99
5.185,2.725
5.215,2.57
5.2,2.445
5.14,2.32
5.055,2.225
4.955,2.17
4.88,2.15
4.86,2.135
4.695,2.09
4.565,2.09
4.49,2.09
4.49,2.095
4.525,2.085
4.545,2.115
4.555,2.17
4.56,2.255
4.565,2.39
4.575,2.585
4.61,2.805
4.635,3.075
4.665,3.38
4.695,3.705
4.715,4.045
4.705,4.35
4.66,4.59
4.645,4.835
4.655,5.065
4.645,5.295
4.63,5.465
4.63,5.625
4.655,5.735
4.66,5.8
4.655,5.82
4.65,5.885
4.655,5.955
4.675,5.995
4.675,6.03
4.665,6.055
4.675,6.1
4.695,6.145
4.695,6.165
4.685,6.185
4.665,6.23
4.665,6.275
4.67,6.3
4.68,6.325
4.67,6.38
4.685,6.425
4.705,6.465
4.72,6.48
4.73,6.53
4.73,6.57
4.74,6.615
4.715,6.64
4.71,6.68
4.745,6.72
4.77,6.77
4.775,6.785
4.745,6.82
4.74,6.855
4.765,6.885
4.79,6.905
4.79,6.9
4.79,6.915
4.825,6.935
4.84,6.91
4.85,6.885
4.845,6.865
4.865,6.84
4.89,6.795
4.895,6.725
4.905,6.665
4.91,6.6
4.92,6.515
4.925,6.42
4.925,6.32
4.935,6.245
4.95,6.155
4.96,6.055
4.935,5.955
4.915,5.885
4.92,5.81
4.92,5.785
4.93,5.655
4.935,5.61
4.95,5.565
4.93,5.505
4.905,5.455
4.905,5.42
4.9,5.395
4.885,5.345
4.855,5.305
4.855,5.29
4.855,5.28
4.86,5.26
4.84,5.23
4.825,5.22
4.84,5.21
4.87,5.215
4.87,5.2
4.835,5.19
4.835,5.195
4.85,5.195
4.855,5.185
4.85,5.17
4.85,5.18
4.845,5.19
4.84,5.18
4.82,5.175
4.83,5.185
4.845,5.185
4.835,5.185
4.83,5.175
4.825,5.175
4.835,5.19
4.84,5.18
4.83,5.175
4.825,5.18
4.815,5.195
4.82,5.18
4.81,5.17
4.81,5.175
4.805,5.18
4.815,5.185
4.815,5.16
4.81,5.15
4.815,5.175
4.805,5.165
4.805,5.145
4.805,5.14
4.81,5.15
4.81,5.145
4.81,5.15
4.79,5.115
4.79,5.125
4.78,5.135
4.78,5.105
4.78,5.1
4.765,5.105
4.77,5.1
4.775,5.09
4.765,5.06
4.77,5.07
4.77,5.075
4.765,5.075
4.75,5.06
4.75,5.06
4.76,5.075
4.77,5.075
4.745,5.045
4.74,5.04
4.75,5.045
4.75,5.05
4.755,5.04
4.745,5.035
4.745,5.045
4.75,5.045
4.75,5.045
4.725,5.015
4.735,5.025
4.745,5.025
4.745,5.025
4.74,5.01
4.73,5.02
4.745,5.02
4.735,5.02
4.725,5.01
4.72,5.01
4.74,5.03
4.735,5.025
4.725,5.01
4.705,5.015
4.735,5.02
4.735,5.02
4.73,5.01
4.73,5.0
4.725,5.02
4.745,5.01
4.73,5.0
4.72,5.0
4.725,5.015
4.74,5.015
4.745,5.015
4.72,4.99
4.725,5.015
4.73,5.02
4.735,5.015
4.72,5.005
4.715,5.0
4.74,5.015
4.745,5.005
4.74,5.0
4.73,5.015
4.745,5.05
4.76,5.105
4.77,5.31
4.78,5.81
4.84,6.02
4.94,5.735
5.285,5.5
5.695,5.435
5.635,5.395
5.295,5.35
5.15,5.3
5.15,5.22
5.175,5.115
5.18,4.915
5.19,4.84
5.21,4.315
5.225,3.99
5.245,3.655
5.215,3.335
5.21,3.08
5.205,2.87
5.23,2.725
5.21,2.6
5.18,2.45
5.155,2.325
5.115,2.24
5.035,2.195
4.945,2.15
4.875,2.12
4.8,2.115
4.67,2.1
4.58,2.08
4.555,2.075
4.58,2.09
4.615,2.105
4.605,2.12
4.58,2.185
4.56,2.305
4.56,2.46
4.55,2.515
4.54,2.835
4.585,3.12
4.63,3.42
4.645,3.71
4.635,3.985
4.635,4.285
4.65,4.585
4.65,4.85
4.635,5.075
4.615,5.28
4.63,5.47
4.645,5.63
4.635,5.725
4.64,5.79
4.64,5.855
4.66,5.93
4.66,5.97
4.645,6.015
4.64,6.055
4.63,6.085
4.615,6.1
4.585,6.14
4.59,6.175
4.595,6.21
4.6,6.225
4.58,6.25
4.575,6.295
4.575,6.33
4.575,6.36
4.55,6.385
4.54,6.435
4.55,6.47
4.535,6.5
4.53,6.52
4.52,6.575
4.53,6.615
4.53,6.66
4.515,6.69
4.515,6.735
4.52,6.795
4.525,6.845
4.55,6.865
4.54,6.895
4.555,6.94
4.575,6.96
4.585,6.98
4.595,6.985
4.61,7.005
4.635,7.005
4.645,6.995
4.66,6.935
4.67,6.925
4.715,6.88
4.725,6.82
4.74,6.745
4.755,6.68
4.79,6.605
4.8,6.53
4.81,6.41
4.825,6.33
4.84,6.255
4.87,6.17
4.86,6.065
4.86,5.99
4.87,5.915
4.88,5.825
4.875,5.745
4.845,5.685
4.86,5.625
4.865,5.575
4.845,5.51
4.83,5.465
4.835,5.435
4.835,5.405
4.84,5.39
4.81,5.335
4.805,5.32
4.805,5.305
4.805,5.28
4.785,5.255
4.785,5.265
4.795,5.255
4.79,5.245
4.775,5.235
4.77,5.245
4.775,5.235
4.79,5.245
4.78,5.22
4.76,5.225
4.77,5.235
4.79,5.225
4.76,5.22
4.76,5.21
4.775,5.225
4.785,5.23
4.775,5.23
4.765,5.22
4.775,5.225
4.775,5.23
4.775,5.23
4.755,5.215
4.75,5.225
4.765,5.225
4.765,5.22
4.755,5.21
4.75,5.215
4.76,5.23
4.76,5.205
4.755,5.19
4.74,5.185
4.755,5.19
4.755,5.175
4.74,5.165
4.73,5.165
4.735,5.155
4.75,5.165
4.74,5.14
4.73,5.13
4.735,5.14
4.735,5.135
4.725,5.12
4.72,5.105
4.725,5.11
4.73,5.11
4.735,5.1
4.715,5.08
4.715,5.09
4.72,5.09
4.72,5.075
4.72,5.06
4.71,5.075
4.715,5.085
4.72,5.075
4.705,5.055
4.705,5.055
4.72,5.055
4.72,5.06
4.71,5.045
4.7,5.05
4.705,5.045
4.7,5.05
4.695,5.04
4.7,5.03
4.715,5.045
4.715,5.04
4.705,5.025
4.69,5.02
4.71,5.035
4.71,5.035
4.715,5.04
4.695,5.015
4.7,5.03
4.71,5.04
4.71,5.035
4.705,5.015
4.69,5.025
4.71,5.04
4.705,5.03
4.695,5.01
4.695,5.015
4.705,5.025
4.71,5.03
4.71,5.015
4.69,5.005
4.705,5.02
4.72,5.02
4.71,5.005
4.695,5.005
4.7,5.01
4.715,5.015
4.715,5.0
4.7,5.0
4.715,5.015
4.72,5.015
4.73,5.02
4.725,5.005
4.73,5.025
4.745,5.045
4.755,5.07
4.76,5.235
4.805,5.69
4.855,5.945
4.985,5.675
5.335,5.455
5.715,5.405
5.62,5.365
5.29,5.315
5.15,5.25
5.16,5.19
5.17,5.065
5.185,4.85
5.19,4.56
5.195,4.255
5.225,3.96
5.23,3.615
5.22,3.295
5.205,3.045
5.21,2.845
5.225,2.69
5.225,2.65
5.185,2.43
5.175,2.295
5.145,2.225
5.05,2.16
4.955,2.13
4.89,2.11
4.825,2.105
4.7,2.08
4.625,2.075
4.625,2.08
4.675,2.09
4.69,2.105
4.675,2.125
4.64,2.195
4.62,2.305
4.6,2.46
4.58,2.63
4.59,2.885
4.615,3.21
4.635,3.56
4.625,3.885
4.62,4.205
4.62,4.545
4.635,4.835
4.63,4.92
4.585,5.3
4.58,5.51
4.605,5.7
4.625,5.835
4.61,5.91
4.61,5.99
4.63,6.05
4.625,6.09
4.62,6.13
4.635,6.17
4.66,6.22
4.665,6.245
4.65,6.245
4.63,6.28
4.65,6.31
4.66,6.345
4.67,6.345
4.66,6.37
4.665,6.415
4.67,6.445
4.665,6.475
4.645,6.51
4.64,6.56
4.65,6.625
4.655,6.645
4.62,6.695
4.6,6.75
4.595,6.805
4.58,6.85
4.575,6.87
4.57,6.93
4.58,6.975
4.595,6.99
4.59,7.0
4.585,7.03
4.605,7.06
4.625,7.055
4.63,7.045
4.62,7.03
4.645,7.025
4.675,6.985
4.675,6.935
4.695,6.89
4.715,6.835
4.73,6.765
4.74,6.67
4.755,6.59
4.785,6.5
4.81,6.415
4.825,6.385
4.82,6.2
4.83,6.12
4.84,6.02
4.85,5.925
4.845,5.82
4.84,5.76
4.84,5.69
4.84,5.61
4.835,5.545
4.83,5.495
4.825,5.45
4.825,5.415
4.825,5.365
4.795,5.35
4.805,5.33
4.8,5.3
4.805,5.27
4.8,5.255
4.795,5.255
4.78,5.25
4.78,5.24
4.765,5.22
4.77,5.23
4.775,5.215
4.78,5.22
4.765,5.195
4.76,5.205
4.765,5.225
4.765,5.21
4.765,5.19
4.76,5.195
4.77,5.22
4.76,5.205
4.755,5.2
4.74,5.195
4.75,5.22
4.755,5.215
4.745,5.2
4.745,5.205
4.755,5.215
4.76,5.22
4.755,5.195
4.74,5.185
4.745,5.195
4.745,5.195
4.735,5.18
4.715,5.165
4.725,5.17
4.73,5.17
4.73,5.165
4.755,5.145
4.745,5.14
4.735,5.145
4.72,5.13
4.705,5.105
4.705,5.12
4.725,5.115
4.715,5.105
4.695,5.095
4.695,5.085
4.74,5.085
4.755,5.095
4.74,5.07
4.725,5.07
4.73,5.07
4.74,5.06
4.74,5.05
4.735,5.04
4.73,5.055
4.745,5.055
4.735,5.035
4.73,5.02
4.735,5.03
4.73,5.035
4.735,5.02
4.72,5.02
4.725,5.025
4.715,5.03
4.72,5.02
4.72,5.005
4.72,5.005
4.73,5.015
4.72,5.01
4.715,4.995
4.71,5.005
4.73,5.01
4.735,5.01
4.735,4.995
4.735,5.005
4.745,5.005
4.755,5.0
4.74,4.99
4.735,4.98
4.73,5.0
4.72,4.995
4.72,4.99
4.72,4.98
4.725,4.99
4.735,5.0
4.74,4.995
4.73,4.98
4.745,4.99
4.75,5.005
4.73,4.995
4.72,4.98
4.72,4.98
4.745,5.005
4.755,4.995
4.75,4.985
4.76,5.005
4.785,5.02
4.795,5.075
4.785,5.3
4.825,5.8
4.905,5.88
5.09,5.575
5.54,5.405
5.82,5.335
5.55,5.265
5.24,5.165
5.175,5.02
5.18,4.815
5.205,4.62
5.195,4.35
5.195,4.255
5.195,3.79
5.205,3.585
5.22,3.41
5.19,3.17
5.17,2.86
5.145,2.635
5.105,2.505
5.07,2.365
5.01,2.23
4.935,2.165
4.845,2.135
4.76,2.1
4.655,2.065
4.505,2.055
4.415,2.06
4.39,2.06
4.455,2.065
4.49,2.08
4.52,2.15
4.545,2.265
4.565,2.405
4.555,2.63
4.57,2.915
4.61,3.23
4.63,3.34
4.685,3.915
4.7,4.245
4.705,4.525
4.715,4.78
4.705,5.03
4.705,5.265
4.72,5.475
4.735,5.625
4.75,5.715
4.735,5.8
4.75,5.865
4.78,5.9
4.8,5.935
4.775,5.98
4.775,6.03
4.77,6.065
4.77,6.085
4.795,6.115
4.815,6.165
4.81,6.2
4.795,6.215
4.775,6.255
4.795,6.315
4.82,6.36
4.83,6.37
4.825,6.43
4.82,6.46
4.835,6.495
4.865,6.52
4.855,6.55
4.845,6.59
4.86,6.64
4.875,6.66
4.88,6.67
4.89,6.705
4.89,6.73
4.9,6.77
4.89,6.77
4.89,6.81
4.905,6.85
4.92,6.87
4.94,6.855
4.905,6.84
4.9,6.83
4.915,6.795
4.96,6.74
4.98,6.685
4.975,6.64
4.97,6.575
4.97,6.545
4.98,6.395
4.985,6.31
4.985,6.245
4.97,6.14
4.96,6.05
4.99,5.975
5.025,5.895
4.995,5.81
4.965,5.72
4.955,5.645
4.965,5.595
4.98,5.54
4.95,5.475
4.945,5.425
4.935,5.385
4.925,5.355
4.92,5.31
4.915,5.28
4.915,5.265
4.915,5.245
4.91,5.22
4.89,5.2
4.89,5.205
4.89,5.2
4.88,5.195
4.855,5.18
4.865,5.185
4.88,5.2
4.87,5.185
4.855,5.175
4.86,5.19
4.87,5.195
4.865,5.195
4.85,5.18
4.865,5.195
4.875,5.205
4.88,5.21
4.87,5.2
4.84,5.19
4.85,5.195
4.85,5.195
4.84,5.2
4.82,5.19
4.825,5.205
4.835,5.2
4.83,5.19
4.825,5.18
4.82,5.185
4.83,5.19
4.835,5.195
4.815,5.17
4.82,5.17
4.825,5.165
4.83,5.14
4.825,5.13
4.81,5.145
4.795,5.14
4.785,5.13
4.79,5.11
4.8,5.115
4.81,5.125
4.805,5.11
4.795,5.085
4.79,5.085
4.79,5.1
4.8,5.09
4.785,5.08
4.785,5.075
4.775,5.08
4.78,5.085
4.77,5.06
4.775,5.055
4.765,5.065
4.77,5.065
4.775,5.06
4.77,5.04
4.765,5.045
4.775,5.05
4.78,5.035
4.77,5.025
4.77,5.04
4.775,5.035
4.77,5.04
4.77,5.025
4.75,5.03
4.775,5.045
4.765,5.035
4.77,5.025
4.765,5.025
4.77,5.04
4.78,5.03
4.765,5.025
4.755,5.015
4.76,5.02
4.77,5.03
4.765,5.02
4.75,5.02
4.76,5.03
4.77,5.02
4.765,5.03
4.745,5.015
4.745,5.015
4.755,5.025
4.765,5.01
4.755,5.005
4.76,5.02
4.775,5.04
4.775,5.025
4.76,5.02
4.765,5.03
4.785,5.06
4.79,5.165
4.805,5.51
4.86,5.985
4.98,5.81
5.345,5.515
5.79,5.43
5.685,5.385
5.29,5.345
5.18,5.285
5.2,5.145
5.23,4.94
5.25,4.67
5.28,4.345
5.29,4.24
5.29,3.6
5.28,3.295
5.28,3.04
5.29,2.81
5.265,2.64
5.25,2.505
5.24,2.37
5.19,2.24
5.09,2.165
4.995,2.145
4.935,2.13
4.85,2.105
4.7,2.08
4.58,2.065
4.565,2.085
4.6,2.105
4.62,2.095
4.62,2.125
4.59,2.215
4.575,2.345
4.555,2.5
4.565,2.71
4.595,3.0
4.625,3.355
4.63,3.465
4.625,4.01
4.635,4.375
4.645,4.7
4.635,4.95
4.61,5.175
4.61,5.415
4.615,5.615
4.625,5.74
4.625,5.83
4.64,5.905
4.655,5.965
4.665,6.025
4.66,6.065
4.655,6.12
4.675,6.165
4.69,6.215
4.68,6.245
4.675,6.275
4.68,6.345
4.695,6.38
4.68,6.405
4.675,6.435
4.675,6.47
4.69,6.505
4.685,6.515
4.695,6.565
4.69,6.605
4.705,6.645
4.71,6.67
4.705,6.695
4.685,6.745
4.685,6.77
4.695,6.805
4.695,6.825
4.68,6.89
4.7,6.945
4.695,6.98
4.695,6.995
4.68,7.025
4.68,7.045
4.685,7.06
4.7,7.06
4.7,7.05
4.715,7.045
4.735,7.015
4.745,6.97
4.745,6.92
4.775,6.885
4.78,6.81
4.79,6.785
4.81,6.63
4.825,6.56
4.85,6.47
4.855,6.37
4.865,6.28
4.86,6.2
4.87,6.11
4.885,6.01
4.89,5.91
4.885,5.84
4.89,5.765
4.895,5.69
4.88,5.615
4.87,5.565
4.87,5.51
4.865,5.47
4.86,5.415
4.85,5.38
4.845,5.36
4.835,5.34
4.845,5.3
4.825,5.28
4.82,5.28
4.83,5.27
4.83,5.265
4.8,5.24
4.81,5.245
4.815,5.245
4.815,5.235
4.8,5.22
4.795,5.23
4.805,5.24
4.8,5.235
4.79,5.23
4.79,5.235
4.8,5.235
4.795,5.245
4.79,5.23
4.78,5.22
4.795,5.24
4.78,5.25
4.78,5.24
4.78,5.24
4.785,5.25
4.795,5.25
4.775,5.245
4.77,5.23
4.775,5.235
4.795,5.24
4.79,5.235
4.765,5.215
4.765,5.22
4.78,5.215
4.775,5.21
4.765,5.195
4.765,5.195
4.77,5.195
4.765,5.19
4.755,5.165
4.75,5.16
4.76,5.17
4.75,5.155
4.74,5.13
4.735,5.125
4.75,5.135
4.735,5.13
4.73,5.115
4.725,5.105
4.73,5.11
4.745,5.11
4.74,5.1
4.73,5.095
4.745,5.09
4.745,5.09
4.745,5.085
4.725,5.07
4.73,5.07
4.735,5.08
4.735,5.07
4.725,5.06
4.73,5.055
4.74,5.065
4.74,5.055
4.73,5.045
4.73,5.045
4.745,5.055
4.735,5.04
4.73,5.035
4.74,5.035
4.735,5.045
4.74,5.045
4.735,5.03
4.735,5.03
4.735,5.04
4.745,5.04
4.74,5.025
4.735,5.025
4.74,5.035
4.745,5.04
4.745,5.04
4.73,5.015
4.735,5.03
4.745,5.03
4.745,5.02
4.735,5.005
4.74,5.015
4.755,5.035
4.75,5.015
4.75,5.01
4.745,5.015
4.76,5.025
4.76,5.025
4.76,5.02
4.76,5.015
4.77,5.03
4.785,5.05
4.78,5.055
4.77,5.11
4.81,5.425
4.855,5.9
4.935,5.84
5.195,5.545
5.7,5.44
5.825,5.375
5.77,5.35
5.22,5.17
5.185,5.035
5.195,4.85
5.185,4.61
5.185,4.33
5.19,4.06
5.22,3.845
5.215,3.635
5.195,3.435
5.17,3.2
5.2,2.915
5.185,2.69
5.145,2.525
5.105,2.4
5.075,2.295
5.025,2.205
4.925,2.16
4.845,2.14
4.785,2.115
4.67,2.105
4.555,2.09
4.485,2.07
4.52,2.11
4.59,2.115
4.615,2.12
4.63,2.215
4.625,2.33
4.63,2.52
4.63,2.745
4.635,3.03
4.675,3.385
4.74,3.765
4.755,4.115
4.725,4.405
4.695,4.71
4.705,4.995
4.69,5.23
4.69,5.445
4.7,5.65
4.715,5.78
4.73,5.875
4.72,5.915
4.715,5.975
4.725,6.03
4.745,6.07
4.73,6.105
4.73,6.135
4.73,6.18
4.725,6.215
4.725,6.225
4.71,6.26
4.72,6.315
4.735,6.34
4.735,6.37
4.715,6.395
4.72,6.44
4.74,6.49
4.73,6.52
4.72,6.545
4.715,6.605
4.73,6.665
4.73,6.695
4.725,6.725
4.73,6.775
4.745,6.845
4.755,6.885
4.75,6.9
4.745,6.935
4.755,6.975
4.77,6.995
4.775,7.01
4.79,7.02
4.8,7.035
4.81,7.03
4.81,7.02
4.825,6.97
4.835,6.94
4.86,6.885
4.865,6.805
4.88,6.73
4.88,6.655
4.895,6.585
4.91,6.485
4.905,6.365
4.91,6.28
4.925,6.19
4.925,6.1
4.925,5.985
4.915,5.9
4.92,5.825
4.925,5.75
4.92,5.655
4.9,5.58
4.9,5.545
4.895,5.5
4.885,5.445
4.875,5.415
4.875,5.4
4.87,5.38
4.87,5.365
4.84,5.335
4.84,5.33
4.845,5.33
4.835,5.31
4.825,5.295
4.83,5.285
4.855,5.295
4.85,5.275
4.825,5.25
4.825,5.235
4.84,5.235
4.84,5.215
4.845,5.18
4.84,5.185
4.85,5.195
4.835,5.185
4.83,5.17
4.825,5.16
4.83,5.19
4.825,5.2
4.82,5.195
4.8,5.185
4.79,5.19
4.78,5.195
4.775,5.19
4.77,5.165
4.77,5.19
4.785,5.18
4.78,5.175
4.77,5.165
4.775,5.165
4.77,5.17
4.765,5.155
4.755,5.14
4.745,5.13
4.745,5.145
4.755,5.13
4.72,5.11
4.715,5.105
4.73,5.105
4.74,5.095
4.725,5.07
4.715,5.08
4.72,5.08
4.725,5.085
4.72,5.07
4.71,5.06
4.73,5.065
4.73,5.06
4.73,5.055
4.71,5.045
4.71,5.05
4.73,5.05
4.72,5.04
4.72,5.04
4.71,5.045
4.72,5.045
4.74,5.05
4.72,5.035
4.705,5.045
4.72,5.045
4.72,5.04
4.715,5.03
4.695,5.035
4.715,5.05
4.705,5.045
4.72,5.035
4.725,5.035
4.73,5.045
4.735,5.035
4.725,5.03
4.715,5.03
4.71,5.045
4.72,5.04
4.72,5.04
4.705,5.025
4.72,5.035
4.74,5.04
4.74,5.04
4.735,5.02
4.725,5.04
4.745,5.04
4.73,5.04
4.725,5.03
4.71,5.02
4.715,5.04
4.72,5.035
4.715,5.025
4.715,5.025
4.75,5.03
4.75,5.035
4.74,5.035
4.73,5.045
4.76,5.065
4.795,5.105
4.805,5.315
4.835,5.805
4.92,5.97
5.165,5.655
5.275,5.55
5.895,5.415
5.59,5.38
5.25,5.315
5.19,5.235
5.205,5.085
5.2,4.87
5.21,4.605
5.23,4.255
5.235,3.895
5.235,3.54
5.235,3.225
5.21,2.965
5.19,2.76
5.2,2.62
5.22,2.54
5.225,2.45
5.225,2.325
5.2,2.225
5.145,2.19
5.065,2.15
4.995,2.125
4.89,2.105
4.78,2.09
4.725,2.1
4.715,2.1
4.76,2.105
4.77,2.14
4.765,2.175
4.73,2.255
4.69,2.365
4.65,2.545
4.65,2.735
4.65,2.95
4.635,3.23
4.635,3.575
4.635,3.895
4.63,4.205
4.645,4.5
4.64,4.79
4.63,5.045
4.615,5.26
4.595,5.435
4.595,5.625
4.635,5.78
4.65,5.88
4.645,5.935
4.65,5.985
4.66,6.045
4.675,6.11
4.665,6.13
4.655,6.18
4.655,6.24
4.66,6.285
4.655,6.32
4.655,6.35
4.675,6.415
4.7,6.47
4.685,6.52
4.675,6.565
4.675,6.63
4.675,6.685
4.67,6.73
4.655,6.775
4.665,6.845
4.67,6.905
4.675,6.95
4.695,6.975
4.725,7.04
4.755,7.085
4.745,7.12
4.715,7.135
4.715,7.15
4.735,7.18
4.765,7.19
4.77,7.195
4.78,7.17
4.805,7.17
4.81,7.14
4.81,7.09
4.83,7.025
4.855,6.98
4.89,6.905
4.905,6.81
4.895,6.72
4.89,6.635
4.905,6.545
4.91,6.44
4.905,6.335
4.93,6.24
4.935,6.155
4.935,6.07
4.915,5.965
4.9,5.89
4.9,5.825
4.905,5.76
4.895,5.685
4.88,5.63
4.9,5.585
4.9,5.54
4.885,5.52
4.875,5.44
4.895,5.415
4.9,5.385
4.885,5.36
4.85,5.32
4.84,5.31
4.85,5.285
4.845,5.27
4.84,5.255
4.84,5.25
4.855,5.24
4.86,5.225
4.86,5.205
4.86,5.205
4.865,5.22
4.825,5.205
4.815,5.19
4.825,5.19
4.87,5.2
4.865,5.205
4.84,5.19
4.845,5.2
4.845,5.215
4.84,5.22
4.84,5.225
4.845,5.22
4.85,5.25
4.825,5.255
4.805,5.25
4.83,5.235
4.85,5.25
4.85,5.26
4.825,5.25
4.815,5.245
4.84,5.24
4.865,5.24
4.865,5.2
4.88,5.17
4.89,5.17
4.89,5.17
4.89,5.145
4.865,5.135
4.85,5.115
4.85,5.12
4.855,5.115
4.855,5.11
4.865,5.11
4.865,5.115
4.83,5.105
4.81,5.095
4.78,5.085
4.79,5.09
4.815,5.1
4.81,5.085
4.78,5.07
4.765,5.07
4.795,5.085
4.805,5.07
4.795,5.065
4.77,5.055
4.78,5.055
4.775,5.05
4.77,5.04
4.76,5.045
4.775,5.055
4.785,5.04
4.775,5.035
4.76,5.035
4.77,5.045
4.77,5.04
4.765,5.04
4.765,5.025
4.78,5.04
4.77,5.035
4.77,5.03
4.755,5.015
4.765,5.03
4.77,5.04
4.765,5.03
4.77,5.025
4.77,5.03
4.78,5.045
4.785,5.035
4.77,5.02
4.765,5.035
4.77,5.045
4.775,5.03
4.77,5.02
4.765,5.03
4.78,5.04
4.78,5.05
4.77,5.035
4.76,5.03
4.79,5.045
4.795,5.05
4.795,5.045
4.78,5.055
4.805,5.095
4.82,5.215
4.835,5.27
4.85,5.98
4.92,5.945
5.15,5.645
5.62,5.51
5.895,5.45
5.63,5.405
5.315,5.34
5.23,5.275
5.225,5.125
5.25,4.93
5.285,4.675
5.3,4.33
5.305,3.995
5.295,3.65
5.295,3.325
5.265,3.065
5.235,2.845
5.225,2.685
5.22,2.59
5.2,2.49
5.165,2.36
5.12,2.26
5.055,2.235
4.975,2.19
4.945,2.17
4.805,2.125
4.68,2.125
4.56,2.095
4.485,2.1
4.49,2.105
4.535,2.125
4.58,2.165
4.56,2.24
4.54,2.34
4.51,2.505
4.515,2.695
4.545,2.875
4.57,3.11
4.585,3.405
4.61,3.715
4.625,4.005
4.635,4.28
4.635,4.57
4.655,4.85
4.655,5.085
4.63,5.28
4.605,5.465
4.615,5.65
4.65,5.765
4.655,5.79
4.64,5.875
4.665,5.94
4.685,5.99
4.68,6.03
4.675,6.08
4.675,6.13
4.685,6.165
4.68,6.205
4.675,6.245
4.655,6.29
4.665,6.34
4.675,6.385
4.67,6.425
4.655,6.485
4.68,6.54
4.675,6.595
4.665,6.62
4.65,6.69
4.655,6.75
4.66,6.8
4.665,6.83
4.65,6.87
4.67,6.92
4.685,6.96
4.68,6.975
4.7,7.025
4.705,7.055
4.73,7.08
4.755,7.09
4.75,7.08
4.76,7.095
4.79,7.08
4.795,7.045
4.8,7.005
4.825,6.96
4.84,6.92
4.855,6.85
4.86,6.78
4.87,6.72
4.885,6.645
4.905,6.57
4.905,6.465
4.895,6.395
4.92,6.315
4.915,6.235
4.92,6.14
4.895,6.055
4.9,5.98
4.92,5.91
4.915,5.89
4.89,5.765
4.885,5.71
4.905,5.665
4.885,5.6
4.88,5.545
4.87,5.52
4.875,5.48
4.87,5.435
4.85,5.39
4.835,5.38
4.84,5.355
4.845,5.33
4.835,5.3
4.825,5.285
4.83,5.28
4.84,5.265
4.825,5.25
4.82,5.24
4.82,5.245
4.83,5.235
4.835,5.22
4.815,5.215
4.815,5.23
4.825,5.22
4.825,5.22
4.815,5.205
4.805,5.22
4.83,5.215
4.82,5.22
4.81,5.21
4.815,5.215
4.825,5.225
4.825,5.225
4.82,5.22
4.81,5.225
4.825,5.23
4.83,5.225
4.82,5.22
4.805,5.225
4.81,5.235
4.81,5.225
4.805,5.23
4.795,5.22
4.8,5.23
4.805,5.225
4.8,5.215
4.785,5.205
4.785,5.225
4.795,5.215
4.79,5.205
4.775,5.19
4.78,5.19
4.78,5.195
4.78,5.19
4.76,5.17
4.77,5.175
4.79,5.17
4.78,5.165
4.77,5.155
4.76,5.16
4.775,5.165
4.765,5.155
4.765,5.145
4.765,5.135
4.76,5.15
4.76,5.145
4.755,5.14
4.745,5.145
4.76,5.16
4.76,5.17
4.745,5.165
4.74,5.155
4.755,5.17
4.755,5.17
4.755,5.165
4.75,5.125
4.755,5.115
4.77,5.11
4.775,5.1
4.785,5.09
4.79,5.075
4.8,5.07
4.79,5.045
4.77,5.025
4.765,5.025
4.775,5.035
4.78,5.015
4.765,5.0
4.76,5.025
4.775,5.05
4.77,5.05
4.75,5.04
4.725,5.035
4.74,5.045
4.745,5.05
4.73,5.035
4.73,5.035
4.74,5.045
4.745,5.06
4.74,5.055
4.72,5.03
4.735,5.05
4.745,5.055
4.745,5.045
4.735,5.035
4.735,5.045
4.75,5.05
4.755,5.05
4.75,5.045
4.74,5.06
4.765,5.08
4.78,5.125
4.78,5.285
4.8,5.75
4.855,6.055
4.94,5.81
5.255,5.555
5.715,5.475
5.73,5.45
5.36,5.415
5.165,5.365
5.17,5.3
5.21,5.205
5.24,5.02
5.25,4.95
5.28,4.48
5.315,4.225
5.33,3.925
5.34,3.595
5.34,3.33
5.355,3.16
5.395,3.005
5.42,2.875
5.415,2.73
5.4,2.58
5.41,2.445
5.365,2.35
5.275,2.27
5.205,2.23
5.145,2.19
5.035,2.15
4.9,2.125
4.805,2.12
4.82,2.13
4.84,2.145
4.84,2.16
4.805,2.22
4.79,2.33
4.75,2.455
4.73,2.5
4.655,2.81
4.64,3.05
4.65,3.34
4.63,3.64
4.615,3.955
4.605,4.265
4.625,4.57
4.625,4.835
4.605,5.07
4.585,5.28
4.585,5.47
4.59,5.65
4.59,5.795
4.595,5.915
4.625,6.0
4.625,6.07
4.63,6.09
4.615,6.155
4.64,6.22
4.645,6.265
4.64,6.3
4.64,6.355
4.645,6.415
4.64,6.46
4.64,6.475
4.625,6.55
4.635,6.625
4.625,6.665
4.63,6.71
4.625,6.76
4.61,6.825
4.635,6.88
4.63,6.93
4.625,6.96
4.615,7.025
4.635,7.08
4.65,7.13
4.63,7.165
4.63,7.2
4.655,7.225
4.665,7.25
4.665,7.245
4.66,7.235
4.7,7.245
4.715,7.22
4.72,7.19
4.73,7.15
4.735,7.1
4.77,7.035
4.775,7.01
4.78,6.875
4.795,6.805
4.805,6.72
4.815,6.63
4.825,6.51
4.815,6.43
4.84,6.345
4.83,6.25
4.83,6.15
4.83,6.065
4.84,5.99
4.845,5.905
4.83,5.83
4.82,5.765
4.825,5.705
4.825,5.65
4.815,5.59
4.8,5.535
4.815,5.505
4.81,5.47
4.805,5.42
4.78,5.39
4.785,5.375
4.78,5.355
4.785,5.355
4.76,5.305
4.77,5.305
4.78,5.3
4.77,5.275
4.77,5.26
4.77,5.265
4.78,5.265
4.77,5.24
4.765,5.22
4.76,5.225
4.77,5.235
4.76,5.235
4.75,5.21
4.745,5.23
4.755,5.23
4.765,5.22
4.755,5.215
4.76,5.2
4.775,5.23
4.77,5.23
4.765,5.22
4.75,5.215
4.76,5.235
4.77,5.24
4.775,5.24
4.755,5.22
4.755,5.24
4.765,5.24
4.75,5.235
4.735,5.22
4.745,5.235
4.755,5.24
4.755,5.24
4.75,5.23
4.75,5.23
4.765,5.245
4.76,5.23
4.76,5.215
4.74,5.215
4.76,5.225
4.75,5.21
4.735,5.195
4.74,5.185
4.74,5.2
4.745,5.185
4.745,5.17
4.72,5.155
4.73,5.175
4.745,5.165
4.745,5.17
4.725,5.15
4.725,5.145
4.74,5.155
4.72,5.135
4.705,5.125
4.71,5.135
4.73,5.135
4.725,5.12
4.72,5.11
4.725,5.11
4.73,5.12
4.735,5.11
4.71,5.1
4.705,5.095
4.72,5.115
4.735,5.115
4.72,5.1
4.72,5.09
4.73,5.095
4.735,5.095
4.73,5.085
4.705,5.085
4.71,5.085
4.73,5.085
4.735,5.085
4.715,5.065
4.72,5.08
4.72,5.09
4.725,5.075
4.715,5.075
4.71,5.08
4.73,5.095
4.735,5.095
4.735,5.095
4.725,5.105
4.72,5.115
4.73,5.115
4.715,5.12
4.73,5.125
4.74,5.135
4.73,5.125
4.725,5.125
4.73,5.125
4.76,5.115
4.765,5.105
4.77,5.08
4.775,5.075
4.79,5.09
4.805,5.12
4.81,5.135
4.83,5.435
4.855,5.92
4.905,6.035
5.005,5.725
5.32,5.495
5.79,5.44
5.86,5.395
5.48,5.345
5.23,5.28
5.215,5.18
5.225,5.035
5.22,4.81
5.215,4.505
5.215,4.2
5.245,3.875
5.255,3.52
5.24,3.205
5.23,2.985
5.255,2.815
5.295,2.675
5.3,2.55
5.295,2.425
5.305,2.325
5.285,2.265
5.265,2.245
5.145,2.175
5.11,2.17
5.025,2.155
4.885,2.135
4.76,2.12
4.72,2.135
4.76,2.145
4.79,2.155
4.775,2.185
4.72,2.265
4.695,2.38
4.645,2.525
4.6,2.675
4.6,2.865
4.62,3.145
4.63,3.455
4.63,3.76
4.625,4.08
4.645,4.4
4.65,4.69
4.635,4.955
4.61,5.205
4.6,5.43
4.595,5.635
4.6,5.69
4.61,5.895
4.63,5.98
4.65,6.045
4.65,6.095
4.665,6.135
4.675,6.2
4.695,6.25
4.695,6.29
4.695,6.325
4.695,6.375
4.7,6.435
4.69,6.47
4.685,6.505
4.665,6.565
4.7,6.615
4.705,6.67
4.71,6.69
4.725,6.755
4.735,6.81
4.745,6.85
4.75,6.88
4.73,6.92
4.76,6.97
4.76,7.005
4.765,7.02
4.75,7.06
4.745,7.11
4.76,7.145
4.755,7.15
4.77,7.15
4.79,7.17
4.82,7.17
4.85,7.15
4.855,7.105
4.855,7.09
4.86,7.05
4.88,6.995
4.89,6.92
4.905,6.855
4.905,6.8
4.895,6.72
4.895,6.615
4.9,6.52
4.93,6.44
4.955,6.35
4.95,6.235
4.94,6.145
4.935,6.075
4.935,5.98
4.935,5.955
4.91,5.815
4.91,5.755
4.935,5.705
4.92,5.64
4.895,5.585
4.885,5.55
4.885,5.515
4.87,5.46
4.855,5.43
4.85,5.395
4.85,5.38
4.84,5.335
4.83,5.315
4.855,5.3
4.885,5.285
4.885,5.265
4.845,5.245
4.82,5.235
4.81,5.24
4.83,5.235
4.835,5.21
4.83,5.215
4.83,5.215
4.865,5.22
4.86,5.215
4.83,5.175
4.84,5.195
4.855,5.2
4.84,5.19
4.825,5.185
4.825,5.195
4.84,5.21
4.83,5.2
4.835,5.195
4.825,5.205
4.845,5.215
4.845,5.205
4.835,5.195
4.835,5.19
4.855,5.21
4.84,5.215
4.83,5.2
4.825,5.195
4.85,5.21
4.86,5.215
4.83,5.21
4.81,5.195
4.81,5.21
4.83,5.215
4.83,5.215
4.835,5.19
4.835,5.2
4.835,5.205
4.83,5.185
4.82,5.175
4.81,5.17
4.825,5.175
4.81,5.165
4.775,5.16
4.79,5.155
4.82,5.16
4.82,5.15
4.8,5.13
4.79,5.14
4.8,5.14
4.795,5.15
4.79,5.115
4.785,5.11
4.795,5.125
4.805,5.115
4.79,5.12
4.79,5.11
4.795,5.105
4.8,5.11
4.8,5.11
4.785,5.085
4.79,5.095
4.8,5.105
4.795,5.085
4.785,5.075
4.78,5.085
4.785,5.085
4.79,5.08
4.775,5.07
4.78,5.075
4.785,5.08
4.78,5.075
4.775,5.065
4.77,5.065
4.79,5.07
4.795,5.08
4.785,5.06
4.765,5.06
4.785,5.07
4.79,5.065
4.78,5.06
4.77,5.055
4.785,5.07
4.79,5.065
4.785,5.06
4.775,5.05
4.775,5.065
4.785,5.065
4.785,5.06
4.78,5.04
4.78,5.06
4.79,5.06
4.795,5.06
4.79,5.055
4.785,5.06
4.795,5.075
4.81,5.07
4.795,5.075
4.795,5.09
4.82,5.17
4.835,5.345
4.845,5.805
4.905,6.15
5.01,5.91
5.34,5.645
5.81,5.56
5.83,5.52
5.44,5.475
5.225,5.42
5.205,5.395
5.21,5.16
5.24,4.94
5.28,4.64
5.285,4.295
5.29,3.92
5.295,3.555
5.28,3.26
5.26,2.985
5.265,2.765
5.27,2.625
5.26,2.495
5.22,2.35
5.16,2.255
5.065,2.21
4.985,2.195
4.935,2.16
4.85,2.145
4.72,2.13
4.625,2.135
4.575,2.135
4.575,2.13
4.62,2.14
4.66,2.2
4.66,2.28
4.655,2.31
4.61,2.605
4.61,2.85
4.65,3.125
4.665,3.46
4.675,3.79
4.67,4.135
4.675,4.46
4.66,4.74
4.65,5.0
4.605,5.225
4.61,5.435
4.6,5.62
4.61,5.745
4.615,5.835
4.625,5.91
4.62,5.955
4.63,5.985
4.615,6.025
4.63,6.08
4.64,6.125
4.625,6.155
4.625,6.19
4.625,6.24
4.635,6.28
4.64,6.3
4.62,6.365
4.625,6.42
4.645,6.46
4.64,6.49
4.63,6.53
4.625,6.595
4.645,6.65
4.63,6.695
4.62,6.735
4.63,6.8
4.645,6.835
4.66,6.885
4.655,6.91
4.665,6.95
4.675,6.99
4.69,7.025
4.7,7.03
4.695,7.05
4.725,7.07
4.745,7.065
4.745,7.04
4.75,7.02
4.775,7.0
4.795,6.955
4.8,6.935
4.81,6.805
4.83,6.74
4.855,6.65
4.865,6.545
4.87,6.45
4.88,6.375
4.895,6.275
4.9,6.17
4.91,6.08
4.905,6.0
4.91,5.925
4.91,5.845
4.89,5.77
4.89,5.705
4.895,5.655
4.895,5.59
4.88,5.535
4.87,5.49
4.875,5.465
4.86,5.425
4.855,5.375
4.85,5.355
4.855,5.345
4.85,5.335
4.84,5.33
4.835,5.295
4.835,5.29
4.845,5.285
4.83,5.26
4.815,5.24
4.815,5.25
4.84,5.255
4.83,5.245
4.825,5.235
4.82,5.245
4.835,5.265
4.83,5.255
4.825,5.24
4.83,5.245
4.83,5.255
4.83,5.26
4.82,5.24
4.825,5.245
4.835,5.255
4.83,5.25
4.83,5.255
4.825,5.245
4.82,5.26
4.835,5.255
4.835,5.245
4.805,5.235
4.815,5.245
4.805,5.24
4.81,5.225
4.805,5.205
4.8,5.215
4.815,5.21
4.8,5.2
4.795,5.18
4.79,5.19
4.79,5.195
4.79,5.185
4.78,5.165
4.78,5.16
4.79,5.165
4.79,5.16
4.78,5.135
4.76,5.135
4.765,5.14
4.78,5.135
4.78,5.115
4.765,5.12
4.77,5.12
4.78,5.12
4.775,5.12
4.76,5.1
4.76,5.105
4.775,5.11
4.775,5.095
4.76,5.085
4.755,5.095
4.775,5.095
4.765,5.09
4.745,5.075
4.745,5.085
4.765,5.095
4.77,5.085
4.765,5.065
4.75,5.08
4.77,5.085
4.77,5.08
4.75,5.055
4.755,5.06
4.765,5.075
4.77,5.07
4.76,5.055
4.76,5.055
4.775,5.065
4.775,5.065
4.77,5.055
4.765,5.035
4.765,5.05
4.775,5.06
4.76,5.05
4.77,5.035
4.77,5.05
4.78,5.06
4.775,5.05
4.775,5.04
4.77,5.06
4.79,5.06
4.785,5.05
4.79,5.05
4.785,5.05
4.805,5.085
4.815,5.095
4.815,5.195
4.835,5.555
4.885,6.02
4.965,5.945
5.205,5.595
5.705,5.475
5.935,5.435
5.57,5.38
5.42,5.36
5.205,5.175
5.24,5.0
5.265,4.72
5.26,4.36
5.27,3.995
5.285,3.63
5.29,3.29
5.275,3.0
5.265,2.78
5.27,2.63
5.275,2.5
5.255,2.35
5.21,2.25
5.12,2.195
5.035,2.17
4.95,2.14
4.855,2.115
4.73,2.115
4.645,2.12
4.645,2.125
4.67,2.13
4.69,2.145
4.7,2.2
4.69,2.285
4.675,2.32
4.65,2.615
4.655,2.87
4.7,3.19
4.72,3.555
4.725,3.905
4.73,4.265
4.745,4.595
4.725,4.895
4.71,5.135
4.695,5.38
4.71,5.615
4.725,5.775
4.715,5.855
4.695,5.92
4.7,5.985
4.695,6.045
4.69,6.075
4.685,6.12
4.695,6.175
4.7,6.22
4.685,6.23
4.675,6.275
4.68,6.315
4.67,6.36
4.66,6.37
4.655,6.425
4.645,6.47
4.645,6.515
4.635,6.545
4.63,6.59
4.635,6.65
4.65,6.695
4.645,6.74
4.645,6.775
4.635,6.84
4.65,6.9
4.66,6.92
4.665,6.955
4.665,6.995
4.69,7.035
4.705,7.05
4.705,7.055
4.715,7.055
4.74,7.07
4.75,7.06
4.76,7.035
4.775,6.995
4.795,6.95
4.815,6.885
4.82,6.865
4.84,6.72
4.87,6.64
4.9,6.55
4.92,6.425
4.91,6.33
4.915,6.24
4.94,6.135
4.94,6.03
4.935,5.93
4.95,5.855
4.965,5.79
4.95,5.715
4.94,5.63
4.925,5.59
4.945,5.54
4.935,5.49
4.92,5.44
4.9,5.41
4.91,5.385
4.9,5.36
4.89,5.325
4.87,5.305
4.865,5.3
4.88,5.295
4.875,5.28
4.855,5.265
4.86,5.275
4.87,5.27
4.865,5.27
4.85,5.26
4.84,5.265
4.855,5.255
4.855,5.255
4.85,5.24
4.845,5.25
4.86,5.26
4.855,5.255
4.84,5.24
4.835,5.24
4.85,5.27
4.845,5.26
4.825,5.25
4.825,5.25
4.845,5.25
4.845,5.25
4.83,5.225
4.835,5.23
4.845,5.24
4.855,5.225
4.845,5.215
4.835,5.2
4.825,5.2
4.835,5.2
4.83,5.185
4.825,5.17
4.83,5.175
4.835,5.175
4.815,5.155
4.8,5.135
4.805,5.135
4.81,5.135
4.815,5.135
4.815,5.12
4.805,5.13
4.82,5.13
4.81,5.115
4.81,5.095
4.79,5.095
4.805,5.105
4.815,5.105
4.795,5.09
4.79,5.085
4.82,5.09
4.84,5.09
4.83,5.09
4.805,5.06
4.815,5.06
4.81,5.075
4.81,5.065
4.795,5.05
4.775,5.06
4.795,5.055
4.805,5.05
4.81,5.04
4.825,5.04
4.83,5.055
4.825,5.05
4.805,5.025
4.795,5.04
4.815,5.05
4.825,5.045
4.82,5.025
4.82,5.025
4.815,5.05
4.805,5.035
4.81,5.025
4.815,5.015
4.815,5.02
4.805,5.03
4.795,5.035
4.785,5.01
4.795,5.035
4.815,5.02
4.815,5.015
4.81,5.015
4.825,5.025
4.855,5.045
4.84,5.03
4.825,5.025
4.825,5.04
4.83,5.065
4.835,5.095
4.86,5.23
4.89,5.675
4.945,5.97
5.025,5.755
5.385,5.485
5.885,5.425
5.85,5.375
5.445,5.315
5.265,5.22
5.28,5.075
5.31,4.865
5.31,4.56
5.325,4.45
5.335,3.82
5.34,3.445
5.325,3.125
5.295,2.875
5.29,2.685
5.3,2.565
5.3,2.44
5.27,2.31
5.235,2.205
5.135,2.17
5.05,2.155
4.945,2.12
4.835,2.105
4.725,2.11
4.69,2.125
4.7,2.12
4.7,2.125
4.69,2.18
4.65,2.265
4.615,2.385
4.575,2.55
4.58,2.75
4.615,3.04
4.65,3.37
4.665,3.48
4.715,4.055
4.73,4.385
4.745,4.695
4.76,4.965
4.73,5.195
4.715,5.41
4.725,5.6
4.735,5.755
4.745,5.855
4.765,5.945
4.805,5.995
4.815,6.02
4.82,6.055
4.825,6.08
4.855,6.115
4.85,6.15
4.835,6.17
4.825,6.195
4.87,6.235
4.89,6.25
4.88,6.265
4.865,6.3
4.875,6.35
4.875,6.405
4.865,6.425
4.84,6.475
4.825,6.525
4.815,6.575
4.775,6.61
4.755,6.65
4.775,6.695
4.81,6.74
4.805,6.755
4.805,6.78
4.81,6.825
4.825,6.85
4.82,6.88
4.815,6.885
4.825,6.905
4.835,6.935
4.86,6.945
4.845,6.93
4.855,6.925
4.875,6.915
4.9,6.88
4.895,6.835
4.925,6.795
4.96,6.755
4.965,6.68
4.97,6.66
4.98,6.51
4.995,6.44
5.025,6.35
5.035,6.255
5.035,6.15
5.04,6.07
5.05,5.99
5.04,5.88
5.025,5.785
5.01,5.71
5.025,5.655
5.025,5.585
5.01,5.525
5.0,5.485
5.01,5.44
5.0,5.4
4.98,5.35
4.965,5.325
4.97,5.32
4.97,5.29
4.97,5.265
4.95,5.235
4.955,5.24
4.96,5.225
4.955,5.22
4.94,5.195
4.935,5.205
4.945,5.205
4.935,5.185
4.915,5.175
4.925,5.195
4.935,5.205
4.925,5.19
4.91,5.175
4.91,5.18
4.92,5.19
4.915,5.18
4.905,5.175
4.9,5.18
4.915,5.18
4.92,5.195
4.9,5.17
4.9,5.175
4.905,5.185
4.91,5.18
4.895,5.16
4.88,5.165
4.89,5.175
4.905,5.175
4.9,5.165
4.875,5.155
4.87,5.16
4.89,5.16
4.885,5.145
4.875,5.13
4.865,5.145
4.87,5.14
4.87,5.13
4.865,5.115
4.86,5.115
4.855,5.12
4.86,5.11
4.85,5.09
4.84,5.085
4.86,5.1
4.86,5.075
4.84,5.075
4.83,5.07
4.845,5.075
4.85,5.07
4.835,5.06
4.83,5.045
4.85,5.065
4.85,5.06
4.84,5.05
4.83,5.03
4.825,5.045
4.835,5.035
4.82,5.02
4.8,5.015
4.815,5.025
4.83,5.035
4.82,5.02
4.805,5.01
4.8,5.01
4.805,5.02
4.8,5.0
4.785,4.995
4.775,5.005
4.775,5.02
4.76,5.02
4.765,5.0
4.77,5.0
4.805,5.01
4.805,5.015
4.795,4.99
4.785,4.995
4.785,5.005
4.795,5.005
4.785,5.0
4.775,4.99
4.78,5.005
4.79,5.0
4.805,5.0
4.81,4.99
4.815,4.995
4.835,4.995
4.825,4.99
4.795,4.985
4.77,4.99
4.77,5.005
4.805,5.0
4.83,4.99
4.85,5.0
4.835,5.02
4.825,5.02
4.82,5.02
4.845,5.05
4.87,5.205
4.91,5.62
4.96,5.925
5.005,5.715
5.24,5.495
5.715,5.425
5.86,5.405
5.55,5.32
5.325,5.28
5.3,5.185
5.285,5.0
5.275,4.735
5.31,4.43
5.37,4.095
5.375,3.705
5.355,3.345
5.36,3.065
5.39,2.84
5.385,2.645
5.35,2.51
5.305,2.385
5.265,2.27
5.215,2.19
5.12,2.15
5.03,2.135
4.98,2.13
4.91,2.11
4.775,2.095
4.675,2.105
4.655,2.125
4.685,2.13
4.695,2.135
4.69,2.18
4.69,2.275
4.67,2.41
4.64,2.595
4.64,2.795
4.65,3.075
4.695,3.41
4.725,3.73
4.73,4.05
4.745,4.37
4.775,4.685
4.77,4.95
4.745,5.175
4.73,5.385
4.75,5.6
4.775,5.755
4.785,5.835
4.795,5.92
4.81,5.985
4.825,6.035
4.825,6.065
4.825,6.135
4.845,6.185
4.84,6.225
4.845,6.235
4.835,6.27
4.85,6.315
4.87,6.34
4.865,6.365
4.86,6.4
4.87,6.445
4.89,6.475
4.875,6.495
4.865,6.515
4.86,6.565
4.875,6.61
4.885,6.64
4.88,6.68
4.855,6.76
4.86,6.815
4.855,6.84
4.845,6.875
4.83,6.915
4.84,6.95
4.85,6.97
4.84,6.99
4.84,7.0
4.855,7.015
4.865,7.01
4.87,7.01
4.87,6.97
4.885,6.955
4.905,6.91
4.915,6.855
4.9,6.78
4.92,6.73
4.94,6.645
4.945,6.56
4.955,6.465
4.96,6.39
4.98,6.3
4.99,6.195
4.985,6.085
4.975,5.99
4.985,5.91
5.01,5.815
4.985,5.73
4.98,5.66
4.97,5.6
4.975,5.54
4.96,5.485
4.93,5.44
4.945,5.405
4.93,5.375
4.935,5.36
4.895,5.305
4.905,5.285
4.92,5.275
4.9,5.255
4.885,5.225
4.9,5.24
4.895,5.235
4.895,5.225
4.875,5.215
